etime(s)	ex	ey	tx	ty	dx	dy	ds
0.000000	656.756320	413.561740	664.410323	559.427551	7.654003	145.865811	146.066487
0.033333	650.233575	414.535623	658.193954	558.853685	7.960378	144.318062	144.537437
0.066667	645.568563	414.450596	651.742894	558.757621	6.174331	144.307025	144.439052
0.100000	639.962489	417.129667	645.217588	558.994943	5.255098	141.865276	141.962574
0.133333	634.372641	420.572500	639.982200	561.650266	5.609560	141.077765	141.189245
0.166667	627.365580	422.396307	633.669238	564.510951	6.303658	142.114644	142.254379
0.200000	618.440722	424.605272	626.658321	567.258903	8.217599	142.653631	142.890124
0.233333	606.033494	426.599751	618.308000	569.484679	12.274505	142.884928	143.411179
0.266667	595.750966	425.146299	607.110021	570.017756	11.359055	144.871457	145.316094
0.300000	586.036261	422.478798	596.060848	569.550174	10.024586	147.071376	147.412625
0.333333	579.120756	419.924089	585.697494	566.278779	6.576739	146.354691	146.502385
0.366667	572.782742	415.449705	577.927040	562.423725	5.144298	146.974019	147.064021
0.400000	570.789610	413.294719	571.598498	558.729514	0.808888	145.434794	145.437044
0.433333	565.337662	411.557227	565.645936	555.239326	0.308274	143.682099	143.682430
0.466667	559.326508	406.928532	560.741538	552.631482	1.415030	145.702950	145.709821
0.500000	552.516182	401.893550	554.358456	548.565936	1.842274	146.672386	146.683955
0.533333	547.118258	397.518076	548.789698	544.395306	1.671441	146.877230	146.886740
0.566667	540.278732	390.840600	543.613998	539.255684	3.335266	148.415084	148.452555
0.600000	530.216613	387.262507	538.961547	533.954790	8.744934	146.692283	146.952713
0.633333	528.505757	384.302712	535.391415	529.710622	6.885658	145.407911	145.570852
0.666667	525.323207	380.358314	531.741729	525.396478	6.418522	145.038164	145.180117
0.700000	525.046646	377.250895	530.145981	522.317952	5.099334	145.067057	145.156654
0.733333	522.736887	374.377082	528.842462	518.608331	6.105576	144.231249	144.360422
0.766667	517.568715	370.606221	527.444714	514.708001	9.875999	144.101780	144.439808
0.800000	513.899538	366.241067	525.133396	511.167905	11.233857	144.926838	145.361577
0.833333	506.319581	361.579097	520.523690	506.916906	14.204109	145.337810	146.030256
0.866667	500.294361	354.776294	515.065271	502.156731	14.770909	147.380437	148.118780
0.900000	492.919064	348.395276	507.696741	495.361171	14.777678	146.965894	147.706986
0.933333	487.728970	341.466819	500.705818	489.175746	12.976847	147.708927	148.277866
0.966667	483.495839	335.591884	494.667751	483.203015	11.171913	147.611131	148.033299
1.000000	480.669994	333.086968	489.877071	476.744951	9.207077	143.657984	143.952723
1.033333	482.724351	332.280016	487.914089	472.605250	5.189738	140.325234	140.421169
1.066667	482.785205	330.098416	487.031842	470.294204	4.246637	140.195788	140.260090
1.100000	480.626167	328.468410	487.604729	469.580940	6.978562	141.112531	141.284984
1.133333	477.115031	325.680814	486.237566	467.581283	9.122535	141.900469	142.193403
1.166667	475.621330	326.172379	482.628775	465.747125	7.007445	139.574746	139.750542
1.200000	477.026304	329.716198	479.886659	466.206271	2.860355	136.490073	136.520041
1.233333	475.884295	331.737426	478.512812	467.436918	2.628517	135.699493	135.724947
1.266667	473.233981	335.891313	478.402080	470.439947	5.168100	134.548634	134.647853
1.300000	472.527607	341.100633	476.364027	473.910617	3.836421	132.809984	132.865383
1.333333	471.342195	343.788443	474.001486	477.921259	2.659291	134.132816	134.159175
1.366667	466.893369	348.317732	472.635495	481.924927	5.742126	133.607195	133.730530
1.400000	462.404855	352.565711	470.626787	485.196076	8.221932	132.630365	132.884965
1.433333	462.933674	354.660840	468.505219	488.925422	5.571545	134.264583	134.380134
1.466667	464.372808	355.528608	466.315376	491.079698	1.942568	135.551090	135.565008
1.500000	467.763836	353.281506	467.343114	492.174745	-0.420722	138.893239	138.893877
1.533333	470.426229	350.489101	470.531021	491.495880	0.104792	141.006779	141.006818
1.566667	469.503420	347.967906	473.090887	488.905868	3.587466	140.937962	140.983612
1.600000	469.222792	345.712002	474.161446	485.910624	4.938654	140.198622	140.285580
1.633333	462.294113	337.501420	472.077362	481.786271	9.783249	144.284850	144.616147
1.666667	455.377911	330.545667	469.462324	478.424616	14.084413	147.878949	148.548155
1.700000	456.855307	325.069429	466.494561	473.983572	9.639254	148.914143	149.225793
1.733333	461.440493	316.362808	465.584004	467.635051	4.143510	151.272243	151.328980
1.766667	469.868844	313.132706	469.398287	460.785152	-0.470557	147.652445	147.653195
1.800000	477.492220	312.803945	476.221658	454.764210	-1.270562	141.960265	141.965951
1.833333	481.631630	313.828735	484.237884	452.428801	2.606254	138.600066	138.624568
1.866667	487.616215	314.015314	489.831115	451.903625	2.214900	137.888311	137.906099
1.900000	489.810318	312.234761	494.022611	451.946683	4.212293	139.711922	139.775408
1.933333	493.153478	312.436030	497.768641	451.135313	4.615163	138.699283	138.776046
1.966667	498.536877	311.290000	500.858420	448.953911	2.321543	137.663911	137.683485
2.000000	503.245628	309.897805	505.088394	447.965787	1.842766	138.067982	138.080279
2.033333	504.519280	310.149044	508.985126	447.158899	4.465847	137.009855	137.082618
2.066667	504.840864	309.875262	512.069092	446.774894	7.228227	136.899632	137.090323
2.100000	503.563389	309.991582	512.846834	445.928588	9.283445	135.937006	136.253631
2.133333	504.465728	310.367858	512.091841	444.995402	7.626114	134.627544	134.843366
2.166667	505.118408	309.630090	511.947096	445.338774	6.828689	135.708684	135.880381
2.200000	503.515445	312.382561	510.870410	445.062551	7.354965	132.679990	132.883691
2.233333	501.524719	313.742913	509.972681	446.031703	8.447962	132.288790	132.558259
2.266667	497.496421	315.452583	508.115748	447.674437	10.619328	132.221854	132.647611
2.300000	493.633942	318.909948	505.503623	449.793968	11.869681	130.884020	131.421140
2.333333	486.853164	319.354099	502.529897	451.742799	15.676732	132.388700	133.313645
2.366667	479.447412	319.628979	497.137372	452.371257	17.689960	132.742278	133.915821
2.400000	473.936596	322.147571	490.259150	454.279515	16.322554	132.131943	133.136307
2.433333	468.374241	323.192070	483.032402	456.380430	14.658160	133.188360	133.992541
2.466667	463.604762	327.020923	478.150667	459.031717	14.545905	132.010794	132.809763
2.500000	454.956507	330.228267	473.399113	462.780000	18.442606	132.551734	133.828591
2.533333	448.984288	332.171811	465.065495	466.654197	16.081207	134.482386	135.440456
2.566667	445.581998	335.208070	456.794971	469.662487	11.212972	134.454417	134.921166
2.600000	444.705244	338.978300	451.732883	470.537946	7.027639	131.559647	131.747214
2.633333	439.643988	345.829961	450.213921	474.103081	10.569933	128.273120	128.707874
2.666667	433.794947	352.526901	447.403719	480.773529	13.608772	128.246629	128.966648
2.700000	430.445685	357.072126	441.479216	487.180768	11.033531	130.108643	130.575640
2.733333	428.619120	360.507687	436.228564	492.567444	7.609444	132.059756	132.278807
2.766667	429.773713	363.057951	432.934522	496.594436	3.160809	133.536485	133.573888
2.800000	429.256700	365.246121	433.109649	500.868381	3.852948	135.622260	135.676979
2.833333	430.186135	366.657617	433.815856	502.870220	3.629721	136.212603	136.260955
2.866667	427.719665	369.581743	433.551551	504.008230	5.831886	134.426487	134.552931
2.900000	425.901244	373.852222	432.644263	507.509766	6.743019	133.657544	133.827528
2.933333	420.681244	374.472731	429.961922	511.568970	9.280677	137.096239	137.410005
2.966667	413.389609	373.921868	426.042682	514.008221	12.653072	140.086353	140.656626
3.000000	404.907609	374.476647	418.992052	513.192115	14.084443	138.715467	139.428664
3.033333	401.017956	377.275064	410.908249	513.378762	9.890293	136.103698	136.462576
3.066667	401.363137	375.353289	405.603292	515.678143	4.240155	140.324854	140.388901
3.100000	402.007594	375.774570	404.288326	517.192359	2.280732	141.417788	141.436178
3.133333	402.913064	378.258079	405.792283	518.519832	2.879219	140.261753	140.291302
3.166667	403.544742	377.872639	406.082897	519.541253	2.538155	141.668614	141.691349
3.200000	402.947007	379.166897	406.130210	521.282284	3.183203	142.115386	142.151032
3.233333	403.406822	379.438613	406.362213	521.884364	2.955390	142.445751	142.476406
3.266667	404.813229	378.075620	406.265147	521.086837	1.451918	143.011217	143.018587
3.300000	405.579326	375.159402	406.910037	520.473618	1.330711	145.314217	145.320309
3.333333	399.415731	380.058640	407.745352	518.798412	8.329621	138.739772	138.989593
3.366667	400.685268	384.336732	409.878686	518.497780	9.193418	134.161048	134.475669
3.400000	399.237565	383.039319	411.337999	518.574758	12.100434	135.535439	136.074522
3.433333	393.568980	384.723500	410.858320	518.371892	17.289341	133.648392	134.762064
3.466667	386.999970	383.848303	407.680060	517.951770	20.680090	134.103467	135.688636
3.500000	379.769351	385.812932	400.729079	517.166723	20.959727	131.353792	133.015521
3.533333	373.838894	387.874658	393.364026	518.851982	19.525132	130.977324	132.424659
3.566667	367.716250	389.370375	387.047435	521.057196	19.331185	131.686821	133.098135
3.600000	359.649013	388.818442	381.695775	522.745552	22.046762	133.927111	135.729623
3.633333	353.407459	386.686707	374.910230	523.003171	21.502771	136.316464	138.001984
3.666667	350.797459	388.453099	366.798121	521.814189	16.000662	133.361090	134.317540
3.700000	352.908512	389.586980	362.487454	522.115972	9.578942	132.528992	132.874715
3.733333	353.663670	395.605302	362.023599	524.164473	8.359929	128.559171	128.830698
3.766667	347.191810	399.259873	361.908384	529.360675	14.716573	130.100802	130.930501
3.800000	342.768917	397.865830	358.227455	533.889131	15.458539	136.023300	136.898885
3.833333	336.872340	398.909228	352.525421	534.735130	15.653082	135.825902	136.724887
3.866667	335.698516	401.733197	348.984221	535.300820	13.285705	133.567622	134.226747
3.900000	332.329830	408.528821	346.554384	538.052581	14.224554	129.523760	130.302503
3.933333	329.784208	411.603629	344.730480	544.794390	14.946272	133.190762	134.026751
3.966667	328.140804	411.361658	342.136470	550.815700	13.995666	139.454043	140.154588
4.000000	329.052207	412.789626	340.062036	554.225407	11.009830	141.435781	141.863655
4.033333	331.667051	412.198166	340.436273	555.674400	8.769222	143.476234	143.743970
4.066667	335.157737	408.369588	342.543898	554.424342	7.386161	146.054754	146.241398
4.100000	335.042856	405.577291	346.038250	552.733606	10.995393	147.156315	147.566526
4.133333	334.148728	403.936251	347.499672	550.457950	13.350944	146.521699	147.128706
4.166667	331.792601	405.591247	346.666674	549.248628	14.874073	143.657382	144.425349
4.200000	331.491773	403.848134	345.188435	548.642966	13.696661	144.794832	145.441197
4.233333	329.473179	400.641913	343.689511	546.818156	14.216333	146.176242	146.865918
4.266667	327.477279	400.855177	341.794847	545.574398	14.317567	144.719221	145.425740
4.300000	320.274921	408.301736	337.851558	545.536821	17.576638	137.235085	138.356087
4.333333	318.354034	417.574254	335.213850	548.832644	16.859815	131.258390	132.336761
4.366667	325.599882	420.049730	335.970351	552.267063	10.370469	132.217333	132.623413
4.400000	330.572464	418.070846	339.736570	552.848027	9.164106	134.777180	135.088375
4.433333	336.967946	419.072276	346.180901	552.516337	9.212955	133.444061	133.761713
4.466667	344.954341	414.459529	353.139247	551.568430	8.184905	137.108901	137.352989
4.500000	352.709551	406.749094	360.316378	551.194381	7.606827	144.445287	144.645445
4.533333	356.759799	402.871510	366.303955	548.200927	9.544156	145.329417	145.642475
4.566667	361.117339	395.915448	371.561980	543.252827	10.444641	147.337380	147.707122
4.600000	361.066433	395.189334	376.003344	539.491578	14.936911	144.302244	145.073253
4.633333	358.635116	393.611558	377.435457	536.679328	18.800342	143.067770	144.297747
4.666667	354.121664	392.568544	376.359444	535.401009	22.237780	142.832465	144.553215
4.700000	350.917241	392.383060	372.654528	533.427303	21.737288	141.044243	142.709454
4.733333	345.125583	392.210334	367.447270	532.317460	22.321687	140.107126	141.874115
4.766667	337.192008	393.983181	361.173985	533.009440	23.981978	139.026259	141.079537
4.800000	329.941887	398.687077	353.467607	534.639850	23.525720	135.952773	137.973244
4.833333	319.491684	402.313562	344.871957	537.982088	25.380273	135.668526	138.022126
4.866667	312.377847	400.804895	334.474202	540.568289	22.096355	139.763394	141.499311
4.900000	304.583327	398.311105	325.375093	542.495219	20.791765	144.184114	145.675517
4.933333	303.121219	398.914783	320.939895	542.293725	17.818676	143.378942	144.481923
4.966667	303.619728	399.451407	321.755006	540.773025	18.135277	141.321618	142.480483
5.000000	301.198153	401.334821	324.330644	541.319836	23.132491	139.985015	141.883461
5.033333	297.096894	401.434564	322.947694	542.596596	25.850801	141.162032	143.509523
5.066667	292.328712	400.925986	318.693278	544.537436	26.364566	143.611450	146.011434
5.100000	290.641503	401.512708	314.025708	544.762612	23.384205	143.249904	145.145981
5.133333	290.594039	402.126253	310.794514	544.768905	20.200475	142.642651	144.065906
5.166667	290.904237	405.131484	309.066222	546.704860	18.161985	141.573375	142.733592
5.200000	291.915662	406.568164	307.631909	548.958444	15.716247	142.390280	143.254990
5.233333	293.380662	408.567081	307.838455	551.874410	14.457793	143.307328	144.034781
5.266667	294.877639	409.298234	308.883424	553.384408	14.005785	144.086174	144.765284
5.300000	299.433835	410.114040	311.131137	554.281659	11.697303	144.167619	144.641381
5.333333	304.563762	409.444353	314.511830	554.896995	9.948068	145.452642	145.792439
5.366667	306.288144	408.348565	317.863802	554.420228	11.575658	146.071663	146.529610
5.400000	306.349476	406.549563	320.744042	554.040815	14.394566	147.491252	148.192014
5.433333	307.131513	404.359028	321.261185	552.655178	14.129672	148.296151	148.967768
5.466667	306.758677	398.801850	321.291304	551.001830	14.532626	152.199980	152.892220
5.500000	302.394745	388.618532	321.994053	546.021041	19.599308	157.402510	158.618041
5.533333	299.825476	386.303492	322.477503	537.739448	22.652027	151.435956	153.120747
5.566667	298.480014	389.796687	321.346267	532.828363	22.866252	143.031675	144.847940
5.600000	301.742205	390.314213	318.539024	532.394303	16.796820	142.080090	143.069512
5.633333	304.435092	387.121703	318.961197	533.635216	14.526106	146.513513	147.231849
5.666667	308.983535	387.964143	322.912772	531.327158	13.929237	143.363015	144.038112
5.700000	311.345810	385.388442	327.248288	528.009474	15.902478	142.621032	143.504869
5.733333	314.145174	384.415778	329.942117	527.111151	15.796943	142.695374	143.567103
5.766667	315.873387	383.465595	331.125438	526.062179	15.252051	142.596584	143.409940
5.800000	317.760596	381.969251	332.900513	524.900960	15.139917	142.931709	143.731313
5.833333	322.308849	380.416698	334.978631	522.754048	12.669782	142.337350	142.900121
5.866667	325.018029	378.593112	338.398813	520.936789	13.380785	142.343678	142.971214
5.900000	327.753280	380.558473	342.801224	519.433156	15.047944	138.874683	139.687574
5.933333	323.703392	381.226684	345.343840	518.211479	21.640448	136.984796	138.683608
5.966667	318.614056	384.832448	344.313089	519.484663	25.699033	134.652216	137.082674
6.000000	315.133306	386.873123	338.660285	520.677978	23.526979	133.804856	135.857492
6.033333	311.343168	387.756145	331.841021	521.977063	20.497853	134.220917	135.777084
6.066667	309.129610	390.214655	327.034347	523.637227	17.904737	133.422572	134.618581
6.100000	305.059858	393.482340	324.269533	526.417054	19.209675	132.934714	134.315486
6.133333	296.940654	390.251987	320.713041	529.665757	23.772387	139.413770	141.426043
6.166667	289.678219	389.654765	313.215493	529.544010	23.537274	139.889245	141.855575
6.200000	288.061168	393.987434	305.736350	529.552287	17.675182	135.564853	136.712258
6.233333	286.305197	395.024074	301.585291	531.655313	15.280094	136.631239	137.483005
6.266667	281.881594	398.420035	299.955789	535.989522	18.074195	137.569487	138.751722
6.300000	276.957650	404.461341	296.840416	540.618568	19.882767	136.157227	137.601289
6.333333	270.878909	400.968973	290.554304	542.886945	19.675395	141.917972	143.275371
6.366667	270.245782	405.840840	285.595135	545.107262	15.349353	139.266421	140.109738
6.400000	262.961471	410.191897	282.791503	547.474274	19.830032	137.282377	138.707178
6.433333	253.885007	417.072842	280.534067	551.233450	26.649060	134.160608	136.781728
6.466667	254.061800	420.297005	278.236476	555.286508	24.174676	134.989503	137.137088
6.500000	253.690954	420.687485	277.178288	557.391544	23.487335	136.704060	138.707083
6.533333	257.431381	418.062950	278.649613	558.198873	21.218231	140.135923	141.733166
6.566667	260.767467	412.225358	281.088691	556.124314	20.321224	143.898956	145.326741
6.600000	266.801256	409.889057	285.736776	552.478710	18.935521	142.589653	143.841451
6.633333	269.915146	400.979008	291.414067	547.480329	21.498920	146.501321	148.070391
6.666667	272.005370	399.117090	295.567812	542.398622	23.562442	143.281532	145.206013
6.700000	273.456513	395.755798	298.259149	538.927096	24.802637	143.171299	145.303791
6.733333	270.955919	386.536433	299.152769	533.617239	28.196850	147.080806	149.759226
6.766667	269.022866	382.043727	298.593947	526.980122	29.571080	144.936395	147.922302
6.800000	267.754773	381.436889	295.588184	520.574755	27.833411	139.137866	141.894484
6.833333	273.172140	382.914953	293.085558	517.766360	19.913418	134.851407	136.313778
6.866667	277.767028	377.175349	294.506077	517.482446	16.739049	140.307097	141.302078
6.900000	284.460998	375.652687	299.165535	514.750547	14.704537	139.097859	139.872935
6.933333	291.352750	373.994337	305.508834	511.690619	14.156084	137.696282	138.422038
6.966667	293.753019	375.616574	310.567899	510.078523	16.814881	134.461949	135.509247
7.000000	299.203304	373.667125	314.455723	510.332144	15.252419	136.665019	137.513504
7.033333	305.530942	370.384608	318.271228	509.065868	12.740286	138.681260	139.265239
7.066667	311.225769	363.934000	322.612128	504.429004	11.386358	140.495004	140.955650
7.100000	314.875727	363.906297	328.015891	500.440714	13.140164	136.534417	137.165269
7.133333	316.804290	365.540567	332.455567	497.751152	15.651277	132.210585	133.133772
7.166667	315.155495	364.533011	335.397590	497.469161	20.242095	132.936150	134.468444
7.200000	310.943930	366.993121	335.861358	498.215756	24.917427	131.222635	133.567429
7.233333	304.964922	368.242230	333.105965	499.140570	28.141043	130.898340	133.889110
7.266667	301.406069	367.774166	327.984835	500.589108	26.578766	132.814941	135.448291
7.300000	298.193348	373.056851	322.142882	501.181598	23.949534	128.124747	130.343895
7.333333	292.368829	374.632430	318.923147	504.448694	26.554319	129.816265	132.504318
7.366667	284.391043	377.163872	315.298310	508.745638	30.907268	131.581766	135.162940
7.400000	274.472759	380.791920	307.650233	511.781073	33.177474	130.989153	135.125508
7.433333	271.046277	381.046960	298.650155	513.841062	27.603878	132.794102	135.632768
7.466667	270.479241	381.204912	293.481766	515.262294	23.002524	134.057382	136.016535
7.500000	270.482470	382.410528	293.567768	517.581869	23.085298	135.171341	137.128489
7.533333	264.013331	384.644467	293.319966	519.220966	29.306635	134.576499	137.730581
7.566667	259.085970	385.911217	290.447714	521.822701	31.361743	135.911484	139.482940
7.600000	257.498135	385.492625	286.525240	524.609221	29.027105	139.116596	142.112632
7.633333	255.451064	386.457829	283.415563	525.043304	27.964499	138.585475	141.378736
7.666667	254.067976	387.085467	282.603470	525.472292	28.535493	138.386825	141.298223
7.700000	254.108868	391.237024	282.144193	526.894338	28.035324	135.657314	138.523956
7.733333	254.822017	393.931484	281.832963	530.362473	27.010946	136.430990	139.079136
7.766667	257.894173	398.320077	281.681748	533.425952	23.787575	135.105875	137.183987
7.800000	261.205444	396.750707	282.499873	535.266718	21.294430	138.516011	140.143277
