etime(s)	ex	ey	tx	ty	dx	dy	ds
0.000000	439.580562	481.374794	510.035693	489.059344	70.455132	7.684549	70.872970
0.033333	441.938476	478.856365	508.323579	486.519319	66.385103	7.662953	66.825914
0.066667	440.328910	476.182798	504.991671	482.771633	64.662761	6.588835	64.997580
0.100000	439.262129	473.873997	500.127198	478.151347	60.865069	4.277350	61.015181
0.133333	436.343861	469.744803	496.197376	475.335206	59.853515	5.590403	60.114023
0.166667	432.401769	463.692338	491.322408	472.318240	58.920639	8.625902	59.548702
0.200000	426.709019	460.812225	486.166361	469.543599	59.457342	8.731374	60.095028
0.233333	420.824579	457.631228	481.847318	467.528368	61.022738	9.897141	61.820126
0.266667	416.228197	455.899646	477.692253	466.756205	61.464055	10.856559	62.415503
0.300000	413.664146	457.119726	474.956044	467.770142	61.291898	10.650416	62.210354
0.333333	410.634618	458.104586	472.501294	470.097225	61.866676	11.992639	63.018323
0.366667	408.720542	458.443804	469.870822	472.153380	61.150281	13.709576	62.668248
0.400000	406.341292	457.490867	468.176493	473.460017	61.835201	15.969150	63.863964
0.433333	405.702463	458.017641	467.535775	474.023008	61.833312	16.005367	63.871200
0.466667	402.874862	457.538077	467.527253	472.968478	64.652391	15.430401	66.468255
0.500000	402.700546	457.096228	468.295879	473.958518	65.595332	16.862290	67.728018
0.533333	402.433020	460.987361	469.888540	481.224050	67.455519	20.236689	70.425639
0.566667	402.057676	474.688489	471.588506	492.029110	69.530830	17.340622	71.660543
0.600000	403.294935	485.657593	472.818798	500.874040	69.523863	15.216448	71.169571
0.633333	404.012073	487.637619	472.019833	504.197165	68.007759	16.559546	69.994813
0.666667	399.788900	484.934724	469.809311	502.442514	70.020411	17.507790	72.176040
0.700000	395.238122	481.813195	465.282433	497.320349	70.044311	15.507153	71.740347
0.733333	389.720314	480.453571	460.340339	495.281215	70.620025	14.827644	72.159871
0.766667	382.892658	480.240956	454.707571	495.582368	71.814913	15.341412	73.435282
0.800000	371.750108	478.406798	444.976268	493.096235	73.226159	14.689437	74.685005
0.833333	364.033628	473.517814	436.455215	488.873718	72.421587	15.355904	74.031683
0.866667	351.194022	470.381466	422.015725	484.302345	70.821702	13.920878	72.176897
0.900000	339.328654	468.527476	401.600024	481.552411	62.271370	13.024935	63.618963
0.933333	316.629028	465.987194	380.422630	482.541463	63.793602	16.554268	65.906506
0.966667	284.072297	462.107193	353.484367	484.822129	69.412070	22.714936	73.034264
1.000000	252.955625	461.203723	320.832933	487.433114	67.877308	26.229391	72.768880
1.033333	224.158771	462.424097	284.742862	489.779478	60.584091	27.355382	66.473672
1.066667	196.789942	461.834286	254.201894	490.591343	57.411952	28.757057	64.211374
1.100000	171.673597	460.239593	211.519056	493.610449	39.845459	33.370856	51.973788
1.133333	149.957700	460.175362	185.303644	498.776344	35.345944	38.600983	52.339007
1.166667	137.445695	463.381158	179.841242	504.224325	42.395547	40.843168	58.868894
1.200000	145.418865	472.864674	183.009462	507.519394	37.590596	34.654721	51.127317
1.233333	164.171269	480.995550	203.125311	507.343592	38.954042	26.348042	47.028041
1.266667	183.607144	479.513367	232.814892	504.866566	49.207748	25.353199	55.355101
1.300000	219.375197	477.614501	268.051495	501.154749	48.676299	23.540248	54.069634
1.333333	268.901025	477.992767	303.996514	499.078166	35.095489	21.085399	40.942488
1.366667	306.107224	478.715665	340.806378	499.257829	34.699155	20.542164	40.323837
1.400000	328.903361	482.244327	374.003288	500.900680	45.099926	18.656354	48.806382
1.433333	346.538787	482.932658	400.542107	502.190674	54.003320	19.258016	57.334368
1.466667	365.414370	481.662763	420.940026	502.488173	55.525656	20.825410	59.302581
1.500000	371.929528	481.203843	435.110119	503.024881	63.180590	21.821038	66.842686
1.533333	385.090550	482.914353	444.056301	504.578391	58.965751	21.664038	62.819506
1.566667	387.000472	483.745520	451.466623	507.475948	64.466151	23.730428	68.695108
1.600000	388.153417	486.965414	457.058675	510.961154	68.905258	23.995739	72.963895
1.633333	396.620107	493.356074	459.748550	513.358392	63.128443	20.002318	66.221546
1.666667	401.571301	494.204807	462.621579	516.285731	61.050277	22.080924	64.920748
1.700000	402.090658	498.534186	465.478712	519.724644	63.388054	21.190457	66.836225
1.733333	400.354534	501.800035	467.536029	521.392373	67.181495	19.592338	69.980090
1.766667	400.632959	502.255774	469.816481	522.077073	69.183522	19.821299	71.966962
1.800000	401.421890	503.871771	472.195984	523.186720	70.774095	19.314950	73.362386
1.833333	407.783041	505.401131	475.285994	525.001567	67.502953	19.600436	70.291008
1.866667	414.101538	510.544195	478.936724	527.840911	64.835187	17.296716	67.102741
1.900000	419.997612	515.967118	483.429887	532.025815	63.432274	16.058697	65.433441
1.933333	421.495913	519.703334	486.872883	535.057722	65.376970	15.354388	67.155830
1.966667	422.334500	521.430359	488.734629	536.463475	66.400129	15.033116	68.080626
2.000000	422.544430	521.909811	490.474110	538.133776	67.929679	16.223965	69.840235
2.033333	423.322343	524.480543	491.639627	539.709734	68.317284	15.229190	69.994140
2.066667	422.401261	525.970278	491.858125	539.991711	69.456864	14.021433	70.858002
2.100000	421.316483	524.868206	490.843464	539.078779	69.526982	14.210573	70.964368
2.133333	420.912918	523.013133	489.425329	538.003138	68.512411	14.990005	70.133093
2.166667	421.139839	522.060628	488.027355	537.265388	66.887516	15.204760	68.593910
2.200000	420.686204	521.535101	485.982818	536.851879	65.296614	15.316778	67.069006
2.233333	419.228900	520.731565	483.424634	535.652970	64.195734	14.921405	65.907060
2.266667	417.678475	519.093058	480.729807	533.831634	63.051332	14.738577	64.751032
2.300000	414.587814	515.084441	478.643771	531.916470	64.055956	16.832029	66.230527
2.333333	415.447460	512.732197	476.971967	529.579547	61.524507	16.847350	63.789483
2.366667	415.230039	507.828523	475.893110	525.369173	60.663071	17.540650	63.148101
2.400000	415.780398	503.241816	474.633858	521.031642	58.853460	17.789826	61.483394
2.433333	414.756490	499.593283	472.040337	518.459143	57.283848	18.865859	60.310529
2.466667	410.379668	495.540889	468.639020	516.284232	58.259352	20.743343	61.842044
2.500000	401.456387	491.799422	463.166699	513.162818	61.710312	21.363396	65.303578
2.533333	392.078079	481.091466	456.456733	509.116422	64.378654	28.024956	70.214025
2.566667	383.711127	471.622520	448.408248	505.621813	64.697121	33.999293	73.086725
2.600000	374.802915	469.544018	440.885315	504.194978	66.082400	34.650959	74.616169
2.633333	365.551312	472.140927	435.909417	504.976349	70.358105	32.835422	77.642951
2.666667	356.042061	472.369095	428.294722	506.253394	72.252660	33.884299	79.803463
2.700000	352.691765	474.923536	422.663459	504.897039	69.971694	29.973503	76.121277
2.733333	340.736974	470.047223	415.724166	500.910854	74.987191	30.863631	81.090336
2.766667	334.368341	467.997320	408.113048	496.283461	73.744707	28.286140	78.983464
2.800000	333.512996	467.083438	403.867034	492.314338	70.354038	25.230899	74.741481
2.833333	330.811306	465.134649	400.769890	488.348963	69.958584	23.214314	73.709619
2.866667	330.324568	460.689012	398.948616	484.246454	68.624047	23.557442	72.554896
2.900000	331.919183	458.413278	397.283323	480.803609	65.364140	22.390331	69.092675
2.933333	331.399922	456.290378	396.039817	477.923597	64.639895	21.633218	68.163863
2.966667	330.671345	451.531405	394.898789	475.250129	64.227444	23.718724	68.467090
3.000000	330.585329	449.641650	394.150249	473.335363	63.564920	23.693713	67.837240
3.033333	331.159151	450.186141	393.996654	473.058613	62.837503	22.872472	66.870784
3.066667	333.401680	450.287657	394.102806	472.938879	60.701126	22.651223	64.789695
3.100000	333.891474	451.478956	393.768119	471.909142	59.876644	20.430186	63.266145
3.133333	330.716384	449.930662	393.152859	470.330490	62.436475	20.399828	65.684598
3.166667	328.296083	447.273694	392.563975	468.305236	64.267892	21.031542	67.621651
3.200000	328.604621	442.189843	391.407575	465.029294	62.802955	22.839452	66.827028
3.233333	328.780014	438.208700	391.818829	460.465445	63.038815	22.256746	66.852486
3.266667	328.470331	437.449428	394.408287	457.690947	65.937956	20.241519	68.974873
3.300000	331.440635	440.325636	398.873683	460.687352	67.433048	20.361717	70.440155
3.333333	332.912762	440.309352	404.678137	466.871224	71.765375	26.561872	76.523213
3.366667	340.858925	448.361647	409.265927	471.654776	68.407002	23.293129	72.264014
3.400000	332.053251	416.720395	413.684975	475.410972	81.631724	58.690577	100.540152
3.433333	258.605445	336.726291	416.822446	476.727050	158.217001	140.000759	211.264839
3.466667	270.368447	292.990433	418.412468	475.916927	148.044021	182.926495	235.327718
3.500000	279.099082	340.975032	419.322061	473.714817	140.222979	132.739785	193.086339
3.533333	327.495371	377.455902	418.851228	470.706135	91.355857	93.250234	130.543091
3.566667	338.202367	399.719360	418.578771	468.775221	80.376404	69.055861	105.967345
3.600000	338.590173	426.985914	417.535080	468.189449	78.944906	41.203534	89.050713
3.633333	340.372842	436.602027	415.848253	468.807243	75.475411	32.205216	82.059208
3.666667	343.182371	446.151827	414.396148	471.879523	71.213777	25.727696	75.718666
3.700000	345.586194	454.639671	412.656511	475.421358	67.070317	20.781686	70.216137
3.733333	342.552701	456.850744	410.798238	476.983706	68.245537	20.132962	71.153282
3.766667	341.883902	454.915704	407.205415	477.289549	65.321513	22.373845	69.047006
3.800000	341.265888	451.664070	399.986218	475.155251	58.720330	23.491182	63.244863
3.833333	336.661482	450.061765	389.722673	470.897190	53.061191	20.835425	57.005306
3.866667	326.199541	449.054699	381.948605	467.311618	55.749063	18.256919	58.662366
3.900000	319.202413	445.557500	373.993770	462.027257	54.791358	16.469756	57.213160
3.933333	312.987518	437.468567	366.283861	455.075174	53.296343	17.606607	56.129250
3.966667	306.529377	428.079470	359.568747	449.155418	53.039371	21.075948	57.073378
4.000000	294.855327	415.728990	350.494349	443.543845	55.639022	27.814855	62.204235
4.033333	289.062981	408.232061	343.008313	439.208937	53.945332	30.976876	62.206637
4.066667	287.230109	407.364879	339.076170	436.757451	51.846061	29.392571	59.598131
4.100000	286.143034	404.105511	335.986293	433.971465	49.843259	29.865954	58.106158
4.133333	283.995666	402.491069	333.368030	431.733042	49.372364	29.241973	57.382256
4.166667	277.818469	399.756725	331.078686	430.370541	53.260217	30.613816	61.431722
4.200000	275.955931	397.930408	328.815286	431.019657	52.859355	33.089249	62.361926
4.233333	277.574056	401.312621	327.633408	436.683887	50.059353	35.371266	61.294904
4.266667	277.624050	408.117486	330.148319	443.020609	52.524268	34.903123	63.063673
4.300000	279.782283	417.166612	334.557108	444.156826	54.774825	26.990214	61.063517
4.333333	280.562550	418.224188	339.043725	439.078794	58.481175	20.854607	62.088344
4.366667	282.421047	412.119434	342.740536	432.528867	60.319489	20.409433	63.678769
4.400000	283.823532	402.170040	346.131956	427.558561	62.308424	25.388522	67.282366
4.433333	290.957826	395.593050	350.708848	423.995721	59.751022	28.402672	66.158116
4.466667	295.704008	397.116462	358.006988	424.704980	62.302980	27.588518	68.138004
4.500000	304.924439	396.836434	366.413999	430.286900	61.489561	33.450466	69.999284
4.533333	291.904538	368.090829	372.685759	436.766658	80.781221	68.675829	106.028181
4.566667	245.623294	328.015137	376.988703	441.672319	131.365409	113.657182	173.709026
4.600000	282.814196	299.694847	379.640747	445.357354	96.826551	145.662507	174.908396
4.633333	312.268492	328.818791	380.903634	447.592526	68.635142	118.773734	137.178653
4.666667	310.058849	355.934997	380.575809	448.633995	70.516960	92.698998	116.472082
4.700000	307.493835	385.118554	378.960978	448.828168	71.467142	63.709614	95.741670
4.733333	308.882400	397.266197	375.774367	448.983044	66.891967	51.716847	84.552750
4.766667	310.187008	404.290042	372.556073	448.849103	62.369065	44.559061	76.651224
4.800000	308.506303	407.597546	368.876365	449.281481	60.370063	41.683935	73.362762
4.833333	307.152038	412.402826	365.188084	450.518738	58.036046	38.115912	69.433460
4.866667	301.659369	420.647516	361.306231	453.006341	59.646862	32.358824	67.858984
4.900000	297.534591	431.549431	355.341831	456.005886	57.807240	24.456456	62.767788
4.933333	295.791378	434.348903	349.200693	456.014543	53.409314	21.665640	57.636402
4.966667	289.415728	434.162387	342.328643	453.518043	52.912915	19.355656	56.341974
5.000000	284.291427	431.622016	334.763027	449.841931	50.471600	18.219915	53.659554
5.033333	278.282903	428.162919	328.849512	445.388061	50.566609	17.225142	53.419917
5.066667	269.455166	423.711366	323.996867	441.056501	54.541702	17.345135	57.233302
5.100000	263.165263	412.576472	317.774221	435.683314	54.608958	23.106842	59.296412
5.133333	259.420569	405.308531	311.550678	431.426347	52.130109	26.117817	58.306849
5.166667	251.837158	402.025010	306.975533	429.259322	55.138375	27.234312	61.497546
5.200000	249.828781	399.125051	303.754990	427.788305	53.926209	28.663254	61.070599
5.233333	245.536926	400.490367	299.740750	427.020628	54.203825	26.530261	60.348234
5.266667	238.259949	402.029738	295.496773	426.916669	57.236824	24.886931	62.413247
5.300000	237.121429	403.526335	293.055730	427.230411	55.934301	23.704076	60.749727
5.333333	234.638915	406.274954	292.349241	427.949434	57.710326	21.674480	61.646288
5.366667	234.890282	407.836251	293.514759	431.115168	58.624477	23.278917	63.077232
5.400000	237.275913	411.950879	295.588890	438.117419	58.312976	26.166541	63.914717
5.433333	237.125701	417.650610	298.024501	444.125491	60.898800	26.474881	66.404693
5.466667	237.708092	417.919358	300.256756	444.779941	62.548665	26.860583	68.072214
5.500000	238.575468	418.572834	301.374701	442.460633	62.799233	23.887799	67.189066
5.533333	242.819860	414.319940	302.579399	438.136582	59.759539	23.816642	64.330669
5.566667	246.797847	413.663891	304.685797	431.939830	57.887949	18.275939	60.704404
5.600000	261.758681	398.119598	312.415118	430.746796	50.656437	32.627198	60.254532
5.633333	234.926126	358.908016	320.355868	434.620759	85.429742	75.712742	114.151917
5.666667	193.062262	331.779222	323.669729	438.292525	130.607466	106.513303	168.533065
5.700000	219.501367	257.131445	328.203214	443.631430	108.701847	186.499984	215.866476
5.733333	248.897659	310.795554	332.635463	449.347040	83.737805	138.551486	161.890501
5.766667	264.915804	351.067815	336.128540	452.961895	71.212736	101.894080	124.312740
5.800000	275.068096	389.462328	339.062046	455.661901	63.993950	66.199572	92.073932
5.833333	277.749219	414.101493	340.422627	455.827300	62.673408	41.725807	75.292755
5.866667	275.469061	419.058964	340.680364	455.107130	65.211303	36.048166	74.511639
5.900000	273.964671	422.827328	339.398543	455.581040	65.433871	32.753713	73.173747
5.933333	275.324771	429.378806	337.768624	458.011909	62.443853	28.633103	68.695628
5.966667	279.834141	437.449475	335.763411	461.125042	55.929270	23.675567	60.733975
6.000000	279.475088	441.094627	333.478249	462.843674	54.003162	21.749047	58.218232
6.033333	280.112560	441.268179	331.768681	465.556715	51.656122	24.288536	57.081415
6.066667	277.152505	444.866485	328.934663	468.921628	51.782159	24.055143	57.096776
6.100000	273.496441	447.217351	324.656578	470.033057	51.160138	22.815706	56.017106
6.133333	269.037612	445.567238	319.397749	468.814163	50.360137	23.246925	55.466774
6.166667	265.434523	445.354417	313.434893	465.977687	48.000370	20.623270	52.243227
6.200000	261.992226	441.671830	308.699645	463.245743	46.707420	21.573914	51.449167
6.233333	257.420105	439.796674	304.266496	460.482461	46.846390	20.685787	51.210214
6.266667	244.271643	438.594150	299.267478	458.656477	54.995835	20.062326	58.540916
6.300000	233.514418	438.402938	296.975773	458.028290	63.461355	19.625353	66.426637
6.333333	231.612907	438.334496	295.614695	456.477357	64.001788	18.142861	66.523622
6.366667	232.416905	437.130228	293.801615	454.910409	61.384710	17.780181	63.907883
6.400000	231.130496	436.352056	292.677667	455.159391	61.547171	18.807335	64.356585
6.433333	230.007778	435.253141	291.980250	458.520545	61.972472	23.267404	66.196370
6.466667	233.029768	443.013376	292.806008	463.938885	59.776240	20.925509	63.333054
6.500000	234.924636	453.941432	295.744867	473.461454	60.820231	19.520022	63.875909
6.533333	241.118295	459.097752	300.518396	480.096522	59.400102	20.998770	63.002543
6.566667	246.673557	457.615674	304.763938	475.382757	58.090382	17.767083	60.746701
6.600000	247.625220	453.955860	306.430228	468.887849	58.805008	14.931989	60.671190
6.633333	247.914851	445.090483	307.609375	461.355548	59.694524	16.265065	61.870740
6.666667	249.952328	436.896750	310.011484	454.786019	60.059156	17.889269	62.666803
6.700000	255.686959	433.549954	312.990536	453.387691	57.303577	19.837736	60.640215
6.733333	261.815046	433.414707	316.206660	455.633520	54.391614	22.218813	58.754773
6.766667	267.227187	434.526694	319.640060	459.401920	52.412873	24.875226	58.016257
6.800000	268.503271	435.401166	323.546078	463.289923	55.042806	27.888757	61.704889
6.833333	269.655028	436.916386	327.751834	466.056623	58.096806	29.140238	64.995326
6.866667	271.715514	437.538378	330.821230	467.608341	59.105716	30.069963	66.315069
6.900000	271.936975	439.483359	332.635835	469.195752	60.698860	29.712393	67.580899
6.933333	274.704080	441.203137	333.309034	470.941252	58.604954	29.738115	65.718309
6.966667	276.612415	441.748567	332.568063	471.500860	55.955649	29.752293	63.373760
7.000000	276.766071	439.698735	331.398705	471.369964	54.632634	31.671228	63.148962
7.033333	278.216388	437.033173	329.981828	471.212317	51.765440	34.179144	62.031239
7.066667	257.885873	373.508088	329.045699	470.036150	71.159827	96.528062	119.922423
7.100000	213.322365	346.829839	327.844572	469.659429	114.522207	122.829589	167.935833
7.133333	242.385072	333.191911	327.107053	474.499519	84.721981	141.307608	164.759382
7.166667	276.774665	359.707275	328.183483	480.536131	51.408818	120.828855	131.310620
7.200000	269.935194	400.927026	329.116686	480.180020	59.181492	79.252994	98.911506
7.233333	270.250481	436.463923	329.343688	477.192624	59.093207	40.728701	71.769312
7.266667	264.164296	440.175731	327.773844	471.780026	63.609548	31.604295	71.028206
7.300000	261.761583	433.350557	323.563642	463.179794	61.802059	29.829236	68.624179
7.333333	258.672811	427.655926	318.438232	455.909769	59.765421	28.253843	66.107376
7.366667	254.373757	424.642506	313.459522	450.165940	59.085764	25.523434	64.362825
7.400000	253.099623	421.220359	310.550469	447.655917	57.450846	26.435558	63.241113
7.433333	253.171910	419.135013	309.124482	446.678088	55.952572	27.543075	62.364343
7.466667	252.836484	417.641741	307.901159	446.698511	55.064675	29.056770	62.260857
7.500000	251.280173	416.355307	307.346707	446.198360	56.066534	29.843053	63.514282
7.533333	250.338077	416.437652	308.264906	446.237537	57.926829	29.799885	65.142541
7.566667	249.753607	416.812346	309.584200	447.964079	59.830593	31.151734	67.454654
7.600000	249.084033	421.806582	310.737004	451.045986	61.652972	29.239404	68.235121
7.633333	250.345011	429.479488	312.610701	455.787205	62.265689	26.307717	67.595207
7.666667	251.950309	433.707569	314.544184	459.435320	62.593875	25.727751	67.675035
7.700000	253.409404	427.474419	315.261673	456.409954	61.852269	28.935535	68.285931
7.733333	255.443362	417.620241	314.437367	448.080411	58.994006	30.460170	66.393634
7.766667	258.715190	410.405448	313.912187	441.522455	55.196997	31.117007	63.363843
7.800000	260.240451	406.653498	315.263892	437.301951	55.023442	30.648454	62.983386
7.833333	263.942412	405.799017	319.067376	435.963269	55.124964	30.164252	62.838235
7.866667	270.134121	406.878573	325.595518	438.699528	55.461397	31.820955	63.941691
7.900000	275.671307	408.231188	330.035546	441.061315	54.364239	32.830127	63.508170
7.933333	278.772166	412.776982	335.239057	444.049703	56.466891	31.272721	64.548376
7.966667	280.340821	416.252499	339.427572	446.968030	59.086752	30.715531	66.593454
