etime(s)	ex	ey	tx	ty	dx	dy	ds
0.000000	672.724470	432.932538	671.863939	442.064292	-0.860531	9.131754	9.172210
0.033333	667.227522	434.521357	668.149766	440.590598	0.922244	6.069241	6.138910
0.066667	663.697098	433.275053	665.033901	438.351831	1.336803	5.076777	5.249830
0.100000	660.296974	429.859736	662.551291	436.357357	2.254317	6.497621	6.877574
0.133333	656.920832	423.694694	659.578594	435.167446	2.657762	11.472753	11.776577
0.166667	654.200112	416.979324	656.539996	434.955841	2.339884	17.976517	18.128161
0.200000	654.092340	416.186933	654.835433	436.169941	0.743094	19.983008	19.996820
0.233333	654.036589	417.458396	652.744483	437.079418	-1.292105	19.621022	19.663521
0.266667	653.430783	421.947862	651.762350	438.185150	-1.668433	16.237288	16.322781
0.300000	653.712961	426.104985	652.899529	440.489316	-0.813432	14.384331	14.407312
0.333333	656.366730	429.200516	653.309151	442.746601	-3.057579	13.546085	13.886872
0.366667	660.450730	433.079417	654.629523	445.956938	-5.821207	12.877521	14.132126
0.400000	663.716885	435.020133	656.091284	448.930070	-7.625600	13.909937	15.863043
0.433333	662.695373	438.099099	656.322175	450.392625	-6.373198	12.293527	13.847326
0.466667	659.936942	437.851540	656.758623	451.221538	-3.178319	13.369998	13.742582
0.500000	659.214497	435.336246	657.417231	451.669998	-1.797267	16.333751	16.432334
0.533333	659.176287	436.757341	659.722692	453.320132	0.546406	16.562792	16.571802
0.566667	661.174966	441.528495	662.830461	455.731649	1.655495	14.203154	14.299309
0.600000	663.839526	445.896986	663.068980	455.803171	-0.770546	9.906185	9.936108
0.633333	665.717364	446.112851	662.287887	454.689377	-3.429477	8.576525	9.236780
0.666667	665.369300	441.011093	659.866035	453.007859	-5.503265	11.996766	13.198800
0.700000	663.540807	438.513331	655.463899	451.132678	-8.076907	12.619347	14.982802
0.733333	658.493373	435.410587	652.260928	450.195821	-6.232445	14.785234	16.045140
0.766667	652.707965	436.683811	649.519627	448.960006	-3.188337	12.276196	12.683472
0.800000	645.842522	434.776848	646.406463	447.542588	0.563941	12.765740	12.778191
0.833333	639.311970	429.154248	643.594290	446.718225	4.282320	17.563977	18.078483
0.866667	633.969576	427.671743	640.259461	445.428933	6.289885	17.757190	18.838271
0.900000	630.236549	422.160877	637.142053	444.478590	6.905504	22.317713	23.361641
0.933333	624.772074	420.480196	632.223741	442.991988	7.451668	22.511792	23.713037
0.966667	621.339271	416.436738	625.704460	440.784455	4.365189	24.347717	24.735930
1.000000	616.611490	415.916796	620.136375	439.073910	3.524885	23.157114	23.423850
1.033333	610.532663	413.588460	614.056938	436.877254	3.524275	23.288793	23.553947
1.066667	602.646629	411.572187	608.355428	434.935651	5.708799	23.363464	24.050818
1.100000	592.373911	409.929006	605.091710	434.234000	12.717800	24.304994	27.431281
1.133333	583.361509	408.228588	602.016257	433.146102	18.654748	24.917514	31.126872
1.166667	574.440769	405.054139	598.770301	431.981462	24.329532	26.927323	36.290589
1.200000	571.218426	401.015830	594.420260	429.934516	23.201834	28.918686	37.075807
1.233333	567.186831	398.935198	589.996916	427.236554	22.810085	28.301356	36.349233
1.266667	560.715446	396.835619	586.531942	425.731282	25.816495	28.895663	38.748558
1.300000	558.225410	394.824962	579.629200	424.737478	21.403789	29.912516	36.781528
1.333333	553.372782	395.546053	569.002575	424.229163	15.629792	28.683110	32.665138
1.366667	544.540136	398.482244	559.151223	424.233542	14.611087	25.751298	29.607655
1.400000	531.595372	398.679877	551.800195	423.657498	20.204823	24.977620	32.126568
1.433333	518.277391	396.714071	548.240530	424.391313	29.963139	27.677242	40.789943
1.466667	510.692734	394.711030	545.599593	425.447013	34.906859	30.735982	46.510100
1.500000	505.660782	395.447432	542.686502	424.536722	37.025720	29.089290	47.085993
1.533333	505.339453	399.308432	541.427411	421.613229	36.087958	22.304797	42.424576
1.566667	505.752204	399.343711	540.116292	416.855643	34.364088	17.511931	38.568877
1.600000	505.326652	395.477165	538.454186	412.259745	33.127534	16.782579	37.136080
1.633333	501.213118	388.515606	537.243749	408.605063	36.030630	20.089456	41.252789
1.666667	497.851366	384.384007	535.292215	404.446717	37.440849	20.062710	42.477400
1.700000	496.030905	383.610416	534.630195	401.719092	38.599290	18.108676	42.636010
1.733333	497.403595	384.470486	534.835122	400.584073	37.431526	16.113587	40.752507
1.766667	497.302908	383.533805	535.312936	400.169162	38.010028	16.635357	41.490931
1.800000	498.766549	383.559667	537.352806	400.856092	38.586257	17.296424	42.285524
1.833333	500.764371	384.803343	540.832458	401.828422	40.068087	17.025079	43.535100
1.866667	497.022835	384.245670	546.804916	403.700233	49.782081	19.454563	53.448439
1.900000	504.375813	384.420734	553.247724	406.470091	48.871911	22.049357	53.615649
1.933333	509.636181	382.884994	556.495016	407.592111	46.858835	24.707117	52.973503
1.966667	516.381182	385.858630	559.909848	407.411115	43.528666	21.552485	48.572157
2.000000	520.829954	386.570817	563.280626	406.283916	42.450672	19.713099	46.804549
2.033333	523.783711	388.499707	564.293406	405.455826	40.509695	16.956118	43.915206
2.066667	528.624790	387.711399	564.889580	406.405266	36.264790	18.693867	40.799457
2.100000	528.532519	386.905939	565.887700	407.490749	37.355181	20.584810	42.651424
2.133333	527.630557	387.304690	567.549680	407.930854	39.919123	20.626164	44.933006
2.166667	529.409070	388.097336	569.638863	407.094800	40.229793	18.997464	44.489773
2.200000	533.097175	386.985371	570.715820	404.045046	37.618646	17.059675	41.306114
2.233333	539.099383	383.622891	571.935178	402.060294	32.835795	18.437404	37.658031
2.266667	540.242778	380.679364	572.170789	402.246642	31.928011	21.567278	38.529798
2.300000	541.664027	378.837085	572.277566	403.580156	30.613539	24.743071	39.362524
2.333333	537.926881	381.595632	574.915864	405.400775	36.988983	23.805143	43.987153
2.366667	538.284460	384.946163	577.976270	406.118821	39.691810	21.172658	44.985789
2.400000	543.462666	386.518260	579.965777	406.394486	36.503111	19.876227	41.563704
2.433333	544.543776	388.088632	581.158112	407.416841	36.614336	19.328209	41.402769
2.466667	547.207387	390.975368	579.965275	407.985028	32.757888	17.009661	36.910808
2.500000	548.586285	394.056330	577.875984	408.297549	29.289699	14.241220	32.568371
2.533333	549.143415	395.803101	576.317706	407.473208	27.174291	11.670107	29.574203
2.566667	545.743597	393.535253	575.150249	405.178585	29.406651	11.643331	31.627809
2.600000	541.038298	388.411353	572.100417	402.315893	31.062119	13.904540	34.032212
2.633333	536.668844	386.905785	566.235524	399.050181	29.566680	12.144396	31.963650
2.666667	528.964421	384.279674	561.953067	396.962271	32.988646	12.682597	35.342595
2.700000	522.660485	382.030458	558.089757	396.333385	35.429271	14.302926	38.207420
2.733333	516.158097	379.732833	550.233143	396.302374	34.075046	16.569540	37.890084
2.766667	515.197453	382.284486	543.095475	398.135968	27.898022	15.851481	32.086899
2.800000	514.865862	387.557077	535.639738	397.291803	20.773876	9.734726	22.941639
2.833333	508.413195	386.995297	523.229639	390.294598	14.816444	3.299302	15.179342
2.866667	496.071852	379.005322	511.791384	383.445498	15.719532	4.440176	16.334591
2.900000	482.860579	371.773267	507.066379	381.967160	24.205799	10.193893	26.264733
2.933333	474.341113	370.361378	506.399242	382.869221	32.058129	12.507843	34.411768
2.966667	471.650552	373.280972	505.180087	380.376561	33.529536	7.095589	34.272104
3.000000	470.275478	372.295034	502.318577	374.119390	32.043098	1.824356	32.094991
3.033333	467.950439	369.011626	501.008233	370.016602	33.057794	1.004976	33.073067
3.066667	466.808363	366.614933	501.319561	369.123807	34.511198	2.508874	34.602273
3.100000	466.570845	365.749973	503.071585	369.206505	36.500741	3.456533	36.664038
3.133333	470.767835	365.080864	506.007765	369.988554	35.239930	4.907690	35.580024
3.166667	473.447601	366.933842	507.738031	371.052096	34.290430	4.118253	34.536845
3.200000	476.353420	368.074316	509.551752	372.623887	33.198332	4.549571	33.508623
3.233333	478.117970	372.842996	511.801114	374.007298	33.683145	1.164302	33.703261
3.266667	489.764260	369.473180	511.561999	374.049659	21.797739	4.576479	22.272979
3.300000	485.282999	373.127377	510.592233	374.953715	25.309234	1.826339	25.375044
3.333333	479.803353	376.953963	508.790232	376.239195	28.986880	-0.714768	28.995691
3.366667	480.922982	376.353701	506.162600	377.261431	25.239618	0.907730	25.255936
3.400000	478.188761	377.940624	505.436073	379.300711	27.247312	1.360088	27.281237
3.433333	475.816973	379.692279	505.146334	379.996662	29.329361	0.304383	29.330941
3.466667	475.615910	383.137085	503.352545	377.448582	27.736634	-5.688503	28.313953
3.500000	476.019023	383.584116	500.654084	373.612465	24.635061	-9.971651	26.576683
3.533333	474.395591	383.119166	497.469453	370.632705	23.073862	-12.486461	26.235755
3.566667	468.756263	379.252102	495.165353	369.698256	26.409090	-9.553846	28.084088
3.600000	467.224508	379.117191	492.879732	369.211588	25.655223	-9.905603	27.501117
3.633333	467.422031	380.196379	491.529343	369.483319	24.107312	-10.713059	26.380526
3.666667	472.471331	385.073344	492.514493	371.525579	20.043163	-13.547764	24.192360
3.700000	473.896289	387.595206	492.889573	373.264584	18.993283	-14.330622	23.793098
3.733333	474.783419	387.655008	492.170942	374.549594	17.387523	-13.105414	21.773329
3.766667	471.742680	386.996031	492.248590	376.132970	20.505911	-10.863061	23.205570
3.800000	468.724661	387.438983	491.574196	376.741200	22.849535	-10.697784	25.229820
3.833333	467.902292	389.356310	490.201938	377.236244	22.299646	-12.120066	25.380509
3.866667	471.462648	392.485882	488.893423	377.438090	17.430776	-15.047792	23.027549
3.900000	459.960148	389.009515	487.139345	376.875275	27.179197	-12.134240	29.764887
3.933333	451.681762	382.587817	482.291608	375.846825	30.609846	-6.740992	31.343319
3.966667	447.231253	379.599540	474.141478	373.981929	26.910226	-5.617611	27.490322
4.000000	441.437652	379.310096	468.163795	372.856562	26.726144	-6.453535	27.494270
4.033333	435.565168	378.030062	463.642857	372.860140	28.077689	-5.169922	28.549688
4.066667	427.478009	377.515410	455.890055	371.802511	28.412046	-5.712899	28.980710
4.100000	418.415401	376.591225	449.535415	370.642381	31.120014	-5.948844	31.683498
4.133333	410.447843	374.197975	444.665420	369.311485	34.217578	-4.886491	34.564728
4.166667	402.013934	371.042897	435.541133	367.128037	33.527200	-3.914860	33.754988
4.200000	394.284103	370.065640	424.438314	364.885243	30.154211	-5.180397	30.595963
4.233333	384.155009	370.611494	416.907747	362.877640	32.752738	-7.733855	33.653445
4.266667	376.778591	371.156778	413.635339	362.352174	36.856748	-8.804604	37.893811
4.300000	371.810494	369.258645	411.908917	363.466692	40.098423	-5.791953	40.514568
4.333333	369.441738	370.251410	410.958809	364.383108	41.517071	-5.868302	41.929752
4.366667	371.209638	374.020726	413.512023	365.641547	42.302385	-8.379179	43.124267
4.400000	373.623207	374.957670	417.104178	366.211914	43.480971	-8.745756	44.351810
4.433333	375.396665	375.616311	418.851088	365.379965	43.454423	-10.236346	44.643809
4.466667	378.356456	376.268620	420.657919	364.866668	42.301463	-11.401952	43.811166
4.500000	381.580330	375.485515	423.616269	365.127942	42.035939	-10.357573	43.293180
4.533333	386.601966	375.320785	427.417632	365.948070	40.815667	-9.372715	41.877995
4.566667	388.508426	374.307952	430.177097	365.891794	41.668672	-8.416158	42.510115
4.600000	388.912491	373.754285	430.499770	363.956508	41.587279	-9.797776	42.725849
4.633333	387.639011	372.618187	431.132727	362.883320	43.493717	-9.734867	44.569845
4.666667	384.569648	372.409633	430.528873	361.676637	45.959225	-10.732996	47.195843
4.700000	381.309018	370.818667	426.688222	358.451241	45.379203	-12.367426	47.034299
4.733333	380.726238	369.124883	422.301335	355.667309	41.575097	-13.457573	43.698912
4.766667	380.345657	367.908498	418.769412	354.983693	38.423755	-12.924805	40.539309
4.800000	378.008304	367.400046	416.429597	356.019458	38.421293	-11.380588	40.071356
4.833333	375.627417	369.144777	415.053032	357.052888	39.425615	-12.091889	41.238246
4.866667	375.014709	368.714234	413.675373	356.272245	38.660664	-12.441990	40.613422
4.900000	376.307961	368.407578	413.907633	355.427895	37.599672	-12.979684	39.776972
4.933333	378.065633	367.258912	415.669352	355.620651	37.603719	-11.638261	39.363547
4.966667	380.107442	367.035336	418.336329	357.107730	38.228887	-9.927606	39.496901
5.000000	375.253369	363.710392	421.466385	359.189403	46.213016	-4.520989	46.433632
5.033333	375.062893	364.638090	424.680248	360.321042	49.617354	-4.317048	49.804807
5.066667	372.913084	365.310008	430.214915	361.685311	57.301831	-3.624697	57.416359
5.100000	377.777568	364.842020	436.958139	363.167963	59.180571	-1.674057	59.204244
5.133333	386.640270	365.821882	441.457159	363.594154	54.816889	-2.227728	54.862137
5.166667	389.505213	365.960789	446.534181	366.030000	57.028969	0.069212	57.029011
5.200000	397.095223	367.804333	452.130474	369.551209	55.035251	1.746877	55.062968
5.233333	403.340554	370.596692	455.069218	371.342932	51.728664	0.746239	51.734046
5.266667	413.289150	373.001361	455.872923	372.971680	42.583773	-0.029681	42.583783
5.300000	416.564486	372.316033	455.651343	375.182305	39.086857	2.866272	39.191809
5.333333	416.934994	374.572787	455.133069	377.102256	38.198075	2.529469	38.281734
5.366667	413.031206	372.439471	453.867392	378.795288	40.836186	6.355817	41.327842
5.400000	406.940005	371.823315	450.585194	380.795553	43.645189	8.972238	44.557868
5.433333	404.277108	376.590289	447.294919	383.658183	43.017811	7.067894	43.594577
5.466667	401.524589	379.411874	444.435253	384.773793	42.910664	5.361919	43.244367
5.500000	400.172469	380.235728	441.600323	383.391679	41.427854	3.155951	41.547889
5.533333	396.502829	377.795077	438.409109	381.410771	41.906280	3.615694	42.061972
5.566667	391.442030	374.156476	434.572489	379.555031	43.130459	5.398555	43.467009
5.600000	387.038001	372.070746	433.663821	379.178337	46.625820	7.107591	47.164446
5.633333	386.221830	373.242852	436.773492	379.699354	50.551662	6.456502	50.962309
5.666667	391.335339	375.088107	439.638861	379.109786	48.303522	4.021679	48.470653
5.700000	391.630172	373.855284	441.313422	378.961092	49.683250	5.105808	49.944916
5.733333	391.845321	372.689819	441.561961	378.194125	49.716639	5.504306	50.020412
5.766667	390.328225	370.894258	441.722825	376.435387	51.394600	5.541129	51.692447
5.800000	393.148662	372.076038	444.391147	376.913684	51.242485	4.837646	51.470332
5.833333	394.282931	370.427590	447.883563	378.702334	53.600633	8.274743	54.235590
5.866667	396.676943	370.148150	450.778768	379.833347	54.101825	9.685197	54.961901
5.900000	399.182525	371.373576	453.469440	382.331619	54.286915	10.958043	55.381837
5.933333	403.533379	373.101970	455.357040	386.912396	51.823662	13.810426	53.632264
5.966667	405.674264	378.069591	457.146398	391.310507	51.472134	13.240915	53.147929
6.000000	407.550621	381.886896	457.407544	393.029767	49.856923	11.142871	51.086949
6.033333	408.081167	385.934807	456.317796	394.338076	48.236629	8.403268	48.963122
6.066667	411.385660	386.979476	455.648381	396.403511	44.262721	9.424036	45.254844
6.100000	410.392902	388.875165	454.529819	396.249018	44.136917	7.373853	44.748644
6.133333	406.976146	387.963019	453.917276	395.175952	46.941130	7.212933	47.492064
6.166667	407.825607	387.242898	454.724719	395.214973	46.899112	7.972075	47.571848
6.200000	409.351012	387.290488	455.212788	394.549594	45.861776	7.259106	46.432716
6.233333	409.346988	387.168584	456.567008	394.213939	47.220020	7.045355	47.742720
6.266667	412.622940	389.004859	459.231100	394.836127	46.608161	5.831267	46.971527
6.300000	416.374223	389.797617	463.203931	395.746329	46.829708	5.948711	47.206024
6.333333	419.762945	389.833862	467.967322	396.301558	48.204377	6.467696	48.636335
6.366667	419.450214	388.356816	471.001337	395.531398	51.551123	7.174583	52.047987
6.400000	419.285143	385.697455	473.116782	395.272865	53.831639	9.575411	54.676629
6.433333	421.606460	386.055236	475.658701	396.532113	54.052241	10.476878	55.058240
6.466667	424.816110	387.537179	476.676872	397.393572	51.860762	9.856393	52.789081
6.500000	429.526433	391.421327	476.956810	398.686986	47.430377	7.265659	47.983648
6.533333	430.859055	392.379240	476.907674	400.040289	46.048619	7.661050	46.681549
6.566667	432.197457	392.203341	476.078441	400.348929	43.880983	8.145588	44.630610
6.600000	430.341186	392.765694	473.847597	399.893234	43.506411	7.127540	44.086388
6.633333	428.152873	393.627270	469.616761	398.800815	41.463888	5.173545	41.785400
6.666667	424.946171	395.687757	466.443986	398.812908	41.497815	3.125151	41.615324
6.700000	423.728642	395.100833	464.898855	400.303495	41.170212	5.202662	41.497639
6.733333	422.305864	393.991732	460.952056	401.314974	38.646192	7.323242	39.333930
6.766667	418.428219	394.257097	455.370068	402.815569	36.941849	8.558472	37.920281
6.800000	415.991228	395.796308	449.438227	403.871521	33.446999	8.075214	34.408005
6.833333	404.893438	398.081412	443.615536	402.995154	38.722098	4.913742	39.032624
6.866667	399.167187	397.921058	438.708283	400.974650	39.541096	3.053592	39.658828
6.900000	394.236832	395.013925	434.410400	398.210699	40.173568	3.196775	40.300558
6.933333	389.924166	393.029268	432.286439	396.417361	42.362273	3.388093	42.497545
6.966667	389.296323	390.769665	432.647914	396.253162	43.351591	5.483497	43.697016
7.000000	388.995448	391.798762	433.481714	395.069330	44.486265	3.270568	44.606327
7.033333	390.265849	392.826555	435.625802	392.308487	45.359953	-0.518069	45.362912
7.066667	392.439045	393.558322	436.716633	388.039144	44.277588	-5.519178	44.620243
7.100000	391.993765	390.748900	436.765700	384.188696	44.771935	-6.560204	45.250000
7.133333	393.931296	385.814522	440.909506	382.750644	46.978211	-3.063878	47.078016
7.166667	397.134525	382.376935	448.184464	382.328694	51.049939	-0.048241	51.049962
7.200000	402.198396	380.413319	454.424185	382.972500	52.225789	2.559181	52.288454
7.233333	410.915086	378.230295	459.585834	385.004249	48.670748	6.773954	49.139884
7.266667	415.397966	377.516771	464.885253	386.841242	49.487287	9.324472	50.358091
7.300000	422.133009	381.276528	470.114775	389.287409	47.981766	8.010881	48.645905
7.333333	425.625157	382.450154	472.132388	391.482111	46.507232	9.031957	47.376142
7.366667	431.357932	384.326490	472.498209	393.031356	41.140276	8.704866	42.051124
7.400000	433.383730	382.569074	474.632755	395.374361	41.249026	12.805287	43.190943
7.433333	434.560357	382.468823	477.369618	397.584913	42.809261	15.116091	45.399659
7.466667	442.051638	385.288983	481.569985	399.574049	39.518347	14.285066	42.020981
7.500000	443.073945	390.628926	488.145318	402.080881	45.071374	11.451956	46.503505
7.533333	447.343861	392.865410	493.593928	404.156892	46.250067	11.291482	47.608469
7.566667	450.614670	393.619771	496.917056	406.367632	46.302386	12.747860	48.025190
7.600000	452.722555	394.465647	498.792185	408.045704	46.069630	13.580057	48.029457
7.633333	455.791712	395.966881	501.365244	409.158436	45.573532	13.191555	47.444325
7.666667	458.909503	397.680711	504.917229	410.078615	46.007726	12.397904	47.648913
7.700000	463.871687	396.864315	506.200215	409.854417	42.328528	12.990102	44.276935
7.733333	467.172954	395.542826	505.991045	409.780716	38.818091	14.237890	41.346846
7.766667	468.501443	393.239510	506.218348	410.024733	37.716905	16.785223	41.283274
7.800000	466.510571	392.823534	505.588945	408.753337	39.078374	15.929803	42.200450
7.833333	464.252183	391.787460	505.497807	407.871711	41.245624	16.084251	44.270810
7.866667	461.821631	391.107074	505.446952	407.418987	43.625321	16.311913	46.575177
7.900000	462.146808	391.126389	503.925518	406.731835	41.778710	15.605446	44.598101
7.933333	462.244643	392.166179	500.854546	407.357820	38.609903	15.191641	41.491091
7.966667	461.017354	394.194944	495.738544	409.019234	34.721190	14.824290	37.753418
8.000000	459.477613	397.968408	491.411403	411.407795	31.933790	13.439386	34.646559
