etime(s)	ex	ey	tx	ty	dx	dy	ds
0.000000	298.835633	177.311573	298.764780	216.721835	-0.070853	39.410262	39.410326
0.040000	294.365493	176.576947	295.043554	216.131505	0.678061	39.554558	39.560369
0.080000	288.213739	175.905400	288.200836	214.279981	-0.012903	38.374581	38.374583
0.120000	283.254421	174.559941	277.948725	212.636658	-5.305697	38.076717	38.444594
0.160000	285.134219	173.615715	264.251732	212.127212	-20.882487	38.511496	43.808830
0.200000	271.247339	176.043427	245.752364	212.811459	-25.494975	36.768032	44.742395
0.240000	252.589564	181.090804	226.869959	213.681694	-25.719604	32.590890	41.517034
0.280000	237.476834	185.438071	214.078366	214.462519	-23.398467	29.024448	37.281454
0.320000	228.417804	187.686760	194.227170	215.254224	-34.190633	27.567464	43.919978
0.360000	220.590358	189.445362	180.257866	215.131596	-40.332492	25.686234	47.817282
0.400000	211.969514	190.960588	168.820176	214.854252	-43.149337	23.893664	49.323143
0.440000	203.096935	189.351346	160.932782	213.986139	-42.164152	24.634793	48.833275
0.480000	195.790948	186.111076	148.823407	209.896136	-46.967541	23.785060	52.646738
0.520000	187.674585	182.128476	136.709571	203.456348	-50.965014	21.327872	55.247722
0.560000	177.000105	176.033925	129.967197	196.831375	-47.032908	20.797450	51.425950
0.600000	162.557633	168.528457	122.854118	191.205275	-39.703515	22.676819	45.723158
0.640000	151.857742	163.015899	119.684192	184.347983	-32.173551	21.332083	38.603046
0.680000	146.849037	160.681491	120.033660	179.182263	-26.815377	18.500772	32.578260
0.720000	144.198089	161.763258	123.256258	178.967605	-20.941831	17.204347	27.102580
0.760000	143.325325	163.106855	127.659791	179.433648	-15.665534	16.326793	22.626822
0.800000	144.935576	167.368299	134.816954	184.369479	-10.118623	17.001180	19.784506
0.840000	147.748901	169.826350	142.281574	188.534797	-5.467328	18.708447	19.490964
0.880000	150.423640	171.484033	148.399173	190.947645	-2.024467	19.463612	19.568614
0.920000	153.113615	172.176000	161.151938	193.293704	8.038323	21.117704	22.595841
0.960000	157.700204	172.241225	168.692369	192.478970	10.992165	20.237744	23.030284
1.000000	164.574178	171.695685	177.915171	189.617342	13.340993	17.921657	22.342065
1.040000	173.124251	170.874382	185.816502	187.446985	12.692251	16.572602	20.874491
1.080000	178.755919	169.133483	192.307985	185.783775	13.552065	16.650292	21.468365
1.120000	192.508361	165.304426	202.770201	180.654929	10.261840	15.350503	18.464650
1.160000	206.346738	163.314426	212.116869	175.672134	5.770131	12.357708	13.638451
1.200000	204.608000	165.360000	219.681508	172.625994	15.073508	7.265994	16.733359
1.240000	204.608000	165.360000	225.536881	170.413779	20.928881	5.053779	21.530415
1.280000	205.062592	165.180503	230.441672	168.731811	25.379080	3.551308	25.626343
1.320000	216.049717	160.842204	232.289500	169.814175	16.239783	8.971971	18.553350
1.360000	226.459459	157.412786	231.792321	173.375776	5.332862	15.962990	16.830225
1.400000	227.961865	168.004749	231.004330	176.782903	3.042465	8.778153	9.290456
1.440000	222.822834	172.610904	229.092295	181.485049	6.269461	8.874145	10.865385
1.480000	215.842387	175.557425	227.288872	184.550442	11.446485	8.993017	14.556661
1.520000	213.483174	172.452631	225.237875	184.854036	11.754702	12.401405	17.087067
1.560000	212.737746	170.198400	223.545561	184.376421	10.807816	14.178021	17.827651
1.600000	213.548178	169.169774	222.040438	183.774552	8.492260	14.604778	16.894319
1.640000	214.371341	168.394291	220.943923	183.696539	6.572582	15.302248	16.654057
1.680000	215.211888	167.964466	220.289536	183.444825	5.077647	15.480358	16.291838
1.720000	215.534040	168.021060	219.908403	183.207852	4.374363	15.186792	15.804231
1.760000	215.424726	167.984363	219.429656	182.952731	4.004930	14.968368	15.494886
1.800000	215.227186	167.608780	219.349637	182.508487	4.122451	14.899708	15.459492
1.840000	214.831310	167.202786	220.081362	181.011850	5.250052	13.809064	14.773398
1.880000	214.787829	166.668923	220.617125	178.818686	5.829296	12.149763	13.475809
1.920000	214.935834	167.275696	221.421905	177.595198	6.486071	10.319503	12.188571
1.960000	215.042273	168.098807	221.990227	179.320376	6.947954	11.221569	13.198397
2.000000	215.891891	169.148336	223.847214	182.821134	7.955323	13.672798	15.818741
2.040000	217.354780	170.121545	224.438044	183.687888	7.083264	13.566343	15.304192
2.080000	218.274005	170.572427	225.133971	183.449070	6.859966	12.876643	14.589964
2.120000	218.866941	170.817013	225.489814	183.898158	6.622873	13.081145	14.662156
2.160000	220.880882	171.442117	225.468240	188.366472	4.587358	16.924355	17.535040
2.200000	225.572775	172.608564	228.420294	192.453070	2.847519	19.844506	20.047762
2.240000	229.744063	173.167465	233.397729	194.916402	3.653666	21.748938	22.053698
2.280000	232.980541	172.235459	246.402170	188.807508	13.421628	16.572049	21.325406
2.320000	235.138568	168.998718	249.962803	183.020767	14.824235	14.022049	20.405289
2.360000	234.396652	165.965220	252.518319	177.652547	18.121667	11.687327	21.563591
2.400000	233.135033	164.054874	249.167904	170.517217	16.032872	6.462342	17.286262
2.440000	231.142609	164.699506	240.417160	164.708509	9.274551	0.009003	9.274555
2.480000	226.859961	167.729277	231.285127	167.952726	4.425166	0.223449	4.430804
2.520000	222.038531	172.433583	220.375413	175.036956	-1.663118	2.603372	3.089257
2.560000	216.742832	178.157303	209.004757	187.496922	-7.738076	9.339620	12.128739
2.600000	212.533593	181.355241	201.952788	196.995045	-10.580805	15.639804	18.882714
2.640000	208.868567	184.783633	197.895242	206.582136	-10.973325	21.798503	24.404684
2.680000	204.377068	191.578774	195.556209	209.332464	-8.820858	17.753689	19.824254
2.720000	204.677175	191.435450	197.762420	206.438626	-6.914756	15.003176	16.519962
2.760000	203.382079	191.778521	201.464800	207.562704	-1.917279	15.784183	15.900201
2.800000	201.380037	193.363471	204.416832	209.007777	3.036795	15.644306	15.936324
2.840000	200.893557	193.493350	205.840411	212.641250	4.946853	19.147901	19.776588
2.880000	196.915860	201.169926	205.985685	213.066344	9.069826	11.896418	14.959495
2.920000	190.459719	214.180453	203.277612	215.144282	12.817893	0.963830	12.854079
2.960000	187.257806	222.357992	197.504938	220.935988	10.247131	-1.422004	10.345327
3.000000	191.410394	219.613062	194.452172	232.692611	3.041777	13.079549	13.428590
3.040000	196.201085	218.598012	191.840157	245.377294	-4.360929	26.779282	27.132041
3.080000	201.929844	219.405612	194.236131	250.308901	-7.693713	30.903289	31.846609
3.120000	213.194691	220.390228	199.879372	251.524715	-13.315319	31.134487	33.862280
3.160000	219.600799	216.616142	213.961579	256.967428	-5.639220	40.351286	40.743430
3.200000	221.785164	208.707236	226.012605	259.795928	4.227442	51.088692	51.263298
3.240000	221.305392	204.087113	229.467782	255.523876	8.162390	51.436763	52.080372
3.280000	217.760974	201.137741	228.175571	249.186101	10.414597	48.048360	49.164100
3.320000	206.223918	201.410270	225.838700	242.282573	19.614782	40.872303	45.335249
3.360000	204.222034	207.120814	224.114387	238.186025	19.892353	31.065211	36.888386
3.400000	204.538297	214.468451	224.236922	236.067680	19.698625	21.599229	29.232901
3.440000	206.261500	223.719822	224.185976	240.517505	17.924476	16.797683	24.565199
3.480000	203.404357	221.494547	221.904515	248.235199	18.500158	26.740651	32.516431
3.520000	200.573680	220.720916	216.173996	258.317295	15.600316	37.596379	40.704515
3.560000	197.819728	224.155621	208.758270	261.612044	10.938543	37.456423	39.020960
3.600000	194.581091	227.418453	205.259395	251.604437	10.678304	24.185984	26.438381
3.640000	189.251430	229.939793	200.952138	252.800004	11.700707	22.860212	25.680651
3.680000	179.897216	233.086060	198.739496	261.532589	18.842280	28.446529	34.120910
3.720000	168.049733	236.141520	192.340287	265.052100	24.290554	28.910580	37.760464
3.760000	155.412972	235.550850	183.340920	266.447628	27.927947	30.896778	41.648303
3.800000	144.277222	235.019334	171.435799	267.287036	27.158577	32.267702	42.175738
3.840000	136.262511	234.610817	158.907644	265.644684	22.645133	31.033866	38.417482
3.880000	128.073163	232.735743	146.613422	262.011966	18.540259	29.276223	34.653116
3.920000	120.373142	230.037360	138.086482	260.207905	17.713340	30.170545	34.986057
3.960000	114.931904	226.815575	131.658626	258.892446	16.726721	32.076871	36.176081
4.000000	111.848109	222.431458	125.558918	252.839225	13.710809	30.407766	33.355937
4.040000	114.945934	220.085239	125.805655	249.201144	10.859721	29.115905	31.075222
4.080000	121.342159	218.427473	130.986198	248.444043	9.644039	30.016571	31.527797
4.120000	133.063592	222.348535	142.523996	255.290569	9.460404	32.942034	34.273559
4.160000	146.274848	233.081313	157.810253	258.141308	11.535405	25.059995	27.587478
4.200000	153.794202	235.466554	172.823288	263.715147	19.029086	28.248593	34.060081
4.240000	166.622074	224.978404	175.028770	269.187118	8.406696	44.208714	45.000921
4.280000	181.765345	210.763664	182.705381	271.912696	0.940036	61.149032	61.156257
4.320000	186.274777	214.073006	190.692978	266.332214	4.418201	52.259208	52.445642
4.360000	189.063799	222.644470	197.177746	251.169619	8.113947	28.525149	29.656707
4.400000	191.071840	232.429331	204.180212	239.984796	13.108372	7.555464	15.129919
4.440000	177.201327	235.381501	204.744916	241.504102	27.543589	6.122601	28.215874
4.480000	170.926599	228.700327	196.339990	247.739340	25.413391	19.039013	31.754125
4.520000	168.565138	217.352779	187.947695	251.393996	19.382557	34.041217	39.172541
4.560000	165.180711	210.767862	181.131344	250.285764	15.950632	39.517902	42.615575
4.600000	161.669139	210.356076	177.126661	245.308075	15.457522	34.951998	38.217498
4.640000	144.296538	233.800195	173.644546	247.626170	29.348008	13.825974	32.441688
4.680000	112.461975	257.146718	168.436817	261.326403	55.974842	4.179685	56.130675
4.720000	104.115625	265.741790	155.193945	278.517710	51.078321	12.775920	52.651866
4.760000	106.231471	267.347887	140.429491	292.356789	34.198019	25.008901	42.366846
4.800000	100.542774	256.843190	128.665249	300.066918	28.122475	43.223727	51.567084
4.840000	103.263219	241.971785	122.315655	300.066502	19.052437	58.094717	61.139115
4.880000	112.076826	230.502788	120.573800	289.955843	8.496974	59.453055	60.057175
4.920000	116.560982	247.114547	121.543586	272.468977	4.982604	25.354430	25.839378
4.960000	121.805061	247.482229	121.982723	263.037408	0.177662	15.555179	15.556194
5.000000	128.250487	243.493694	129.585137	264.156320	1.334650	20.662626	20.705686
5.040000	137.344833	239.424657	142.859926	268.128460	5.515092	28.703802	29.228830
5.080000	146.062577	241.599314	155.666737	261.058789	9.604160	19.459475	21.700485
5.120000	154.492295	246.862586	162.736429	259.290328	8.244135	12.427743	14.913569
5.160000	160.670962	235.790746	165.575999	261.408141	4.905038	25.617394	26.082758
5.200000	158.242291	229.801016	168.285260	263.708380	10.042968	33.907364	35.363406
5.240000	147.980403	229.445054	169.700637	261.667765	21.720234	32.222711	38.859640
5.280000	145.681475	230.917805	169.430540	251.723780	23.749065	20.805975	31.573829
5.320000	127.018825	240.739065	168.020327	245.229834	41.001502	4.490768	41.246699
5.360000	113.848160	245.204171	166.204911	244.723908	52.356751	-0.480263	52.358954
5.400000	114.292240	239.118257	159.220542	255.235482	44.928302	16.117225	47.731722
5.440000	111.654902	242.050388	144.833836	269.013006	33.178935	26.962619	42.753064
5.480000	110.577015	245.630594	138.018224	272.420158	27.441209	26.789564	38.349716
5.520000	117.050481	245.055648	137.794279	269.925790	20.743799	24.870142	32.385631
5.560000	121.536216	247.320498	141.308393	270.796801	19.772177	23.476302	30.693253
5.600000	123.224027	251.620303	143.745285	272.380894	20.521258	20.760591	29.191166
5.640000	121.354815	257.569869	145.211883	274.921853	23.857068	17.351984	29.500018
5.680000	121.198423	256.687077	145.609179	276.298072	24.410756	19.610995	31.312556
5.720000	123.655187	246.053892	148.877886	274.860598	25.222699	28.806706	38.288521
5.760000	124.261236	244.603905	149.924087	271.921543	25.662851	27.317638	37.481132
5.800000	123.509849	240.992349	148.544479	271.474286	25.034630	30.481936	39.444659
5.840000	121.429377	234.973840	147.562305	269.200173	26.132928	34.226333	43.062418
5.880000	121.870642	234.622849	145.527541	266.110079	23.656900	31.487230	39.383938
5.920000	122.467918	234.536256	141.600530	257.695901	19.132612	23.159644	30.040406
5.960000	123.309786	234.836923	137.150273	255.272976	13.840488	20.436053	24.681802
6.000000	123.520000	234.912000	131.896861	263.825496	8.376861	28.913496	30.102526
6.040000	123.520000	234.912000	140.611268	274.013979	17.091268	39.101979	42.674070
6.080000	123.520000	234.912000	154.871530	283.533658	31.351530	48.621658	57.853125
6.120000	123.520000	234.912000	163.905476	281.656553	40.385476	46.744553	61.774104
6.160000	123.520000	234.912000	168.446426	282.429879	44.926426	47.517879	65.393673
6.200000	130.231614	246.401991	167.418272	284.934321	37.186658	38.532331	53.549865
6.240000	132.352000	253.151591	163.967288	286.741833	31.615288	33.590243	46.128417
6.280000	128.583699	263.118243	160.593637	285.242615	32.009938	22.124373	38.911746
6.320000	118.755060	281.851269	158.001494	282.665546	39.246434	0.814277	39.254881
6.360000	109.406527	262.851866	155.656923	286.784736	46.250395	23.932870	52.075727
6.400000	114.185729	251.478421	145.518385	293.550677	31.332656	42.072255	52.457697
6.440000	126.899937	245.188946	135.699637	292.910334	8.799700	47.721388	48.525927
6.480000	125.645703	260.902637	136.989537	282.593399	11.343834	21.690762	24.477984
6.520000	121.031267	271.597614	143.000630	280.053402	21.969363	8.455788	23.540460
6.560000	111.438485	273.745761	148.552953	283.477375	37.114468	9.731614	38.369103
6.600000	108.466374	272.349064	148.966881	295.005926	40.500508	22.656861	46.407160
6.640000	104.661756	264.581264	146.923791	300.332097	42.262035	35.750832	55.355231
6.680000	99.484530	247.982524	140.147470	298.896419	40.662940	50.913895	65.159031
6.720000	103.870225	240.610904	130.676078	294.069452	26.805853	53.458547	59.802759
6.760000	104.667014	238.599590	126.279284	285.321134	21.612270	46.721544	51.478082
6.800000	96.037736	244.587537	122.993453	275.344164	26.955717	30.756627	40.897198
6.840000	87.379337	263.004377	118.561763	264.497496	31.182426	1.493119	31.218154
6.880000	89.701528	253.200866	107.835189	262.916090	18.133661	9.715224	20.572196
6.920000	93.754905	244.280167	108.094765	274.780414	14.339860	30.500247	33.703066
6.960000	99.920588	241.387454	119.927125	286.251044	20.006537	44.863589	49.122329
7.000000	123.143123	242.711563	138.908755	284.503948	15.765632	41.792385	44.667198
7.040000	136.787973	236.999847	150.400831	278.744782	13.612858	41.744935	43.908422
7.080000	150.381768	225.681446	157.436320	271.892039	7.054552	46.210593	46.745969
7.120000	160.114429	221.279970	164.062542	261.754864	3.948112	40.474894	40.666997
7.160000	166.018817	223.403023	175.940682	249.444219	9.921865	26.041196	27.867316
7.200000	163.799211	225.091680	181.297575	245.312324	17.498364	20.220645	26.740741
7.240000	155.574497	227.841829	182.998685	244.807193	27.424187	16.965364	32.247630
7.280000	148.791180	230.701659	179.951273	248.119324	31.160094	17.417665	35.697710
7.320000	139.438517	233.202507	171.080941	258.028141	31.642424	24.825634	40.218840
7.360000	133.958487	232.619384	161.989646	264.933190	28.031159	32.313806	42.777657
7.400000	132.065658	232.173973	156.105017	266.539133	24.039359	34.365160	41.938705
7.440000	130.507010	235.943067	153.875444	264.892369	23.368434	28.949302	37.204110
7.480000	127.492417	242.778367	154.135081	266.789502	26.642664	24.011135	35.865947
7.520000	120.636973	253.923993	152.188690	276.566140	31.551718	22.642147	38.835264
7.560000	111.157462	263.295190	147.791153	283.999472	36.633691	20.704282	42.079622
7.600000	103.662145	270.540612	140.911425	295.741761	37.249280	25.201149	44.973400
7.640000	99.471696	275.459835	133.683473	304.776419	34.211777	29.316584	45.054498
7.680000	100.848845	268.781320	128.572027	307.864674	27.723182	39.083354	47.917464
7.720000	104.270313	256.032438	125.050896	300.550796	20.780583	44.518358	49.129592
7.760000	104.360319	240.641386	122.406447	288.276789	18.046128	47.635403	50.939124
7.800000	106.736974	229.704650	115.513993	273.894777	8.777019	44.190127	45.053340
7.840000	110.818055	222.586618	111.930718	263.083328	1.112663	40.496711	40.511993
7.880000	117.033882	220.825467	113.489651	257.655389	-3.544231	36.829923	37.000065
7.920000	123.856522	214.315349	127.028554	255.394577	3.172032	41.079228	41.201514
7.960000	135.115867	220.887812	138.144579	252.221590	3.028712	31.333779	31.479815
8.000000	137.144458	219.488084	144.677321	248.915264	7.532863	29.427180	30.376026
8.040000	146.295102	215.018289	148.770803	249.643198	2.475701	34.624909	34.713303
8.080000	161.655575	207.651725	152.282683	252.729307	-9.372892	45.077581	46.041714
8.120000	157.630610	207.346804	156.118030	246.751472	-1.512579	39.404668	39.433688
8.160000	154.071375	210.444911	156.642915	236.838978	2.571540	26.394067	26.519042
8.200000	146.347613	216.153725	156.690850	226.963345	10.343237	10.809620	14.960964
8.240000	129.010325	221.929397	155.980174	221.168363	26.969849	-0.761034	26.980585
8.280000	127.970379	223.860725	152.420154	223.437135	24.449775	-0.423590	24.453444
8.320000	142.731019	210.912096	144.927063	231.753013	2.196044	20.840917	20.956298
8.360000	161.093892	194.194492	139.163318	238.350316	-21.930575	44.155823	49.301996
8.400000	172.369972	183.219782	143.230651	231.011548	-29.139321	47.791767	55.974574
8.440000	140.658157	213.219263	149.699117	224.985332	9.040961	11.766069	14.838441
8.480000	119.550659	240.450630	150.510090	222.486039	30.959432	-17.964591	35.794035
8.520000	114.006257	249.029862	141.817788	242.163337	27.811530	-6.866525	28.646647
8.560000	108.952007	248.930974	131.513511	270.937964	22.561504	22.006990	31.517124
8.600000	109.034800	239.770807	124.593431	279.963121	15.558631	40.192314	43.098644
8.640000	110.843886	235.702088	119.156464	276.943275	8.312578	41.241187	42.070589
8.680000	112.617383	230.768130	118.769369	267.830852	6.151986	37.062722	37.569832
8.720000	111.843786	224.065071	122.728668	259.136395	10.884882	35.071325	36.721635
8.760000	106.178446	233.571837	125.667005	248.556082	19.488559	14.984244	24.583155
8.800000	102.874215	240.094462	121.430575	246.552122	18.556360	6.457659	19.647897
8.840000	101.477320	244.490605	116.642136	254.253981	15.164816	9.763377	18.035941
8.880000	104.153602	246.047218	114.317244	264.501857	10.163642	18.454639	21.068302
8.920000	113.323002	231.048652	123.688270	261.859341	10.365268	30.810689	32.507497
8.960000	118.900960	221.916146	133.519952	258.245853	14.618992	36.329707	39.160727
9.000000	122.067424	218.537826	137.166791	260.199852	15.099366	41.662026	44.313827
9.040000	123.739466	223.945835	136.090345	266.360036	12.350879	42.414201	44.175883
9.080000	123.823714	233.117679	136.460318	263.271612	12.636605	30.153933	32.694701
9.120000	123.323981	239.231546	136.036628	256.434166	12.712646	17.202620	21.390220
9.160000	122.114224	244.614088	136.037440	252.909968	13.923216	8.295879	16.207330
9.200000	120.205096	251.316987	137.959131	261.464294	17.754035	10.147308	20.449294
9.240000	123.207844	247.148992	135.429405	266.944976	12.221561	19.795984	23.264727
9.280000	130.387674	242.206701	136.592525	260.804732	6.204851	18.598031	19.605788
9.320000	141.005817	237.575715	142.942316	246.918089	1.936499	9.342374	9.540963
9.360000	152.897116	234.944955	154.612995	239.226424	1.715879	4.281469	4.612507
9.400000	154.340744	236.589642	165.460020	242.249088	11.119276	5.659446	12.476683
9.440000	144.951193	245.269392	171.925373	250.280300	26.974180	5.010907	27.435663
9.480000	137.859254	255.164780	170.732569	261.780566	32.873315	6.615786	33.532424
9.520000	134.504973	260.830423	162.273793	279.891092	27.768820	19.060669	33.681100
9.560000	131.734036	256.955673	151.039301	294.510104	19.305265	37.554431	42.225923
9.600000	131.340868	250.471644	144.670576	295.504291	13.329707	45.032647	46.964033
