etime(s)	ex	ey	tx	ty	dx	dy	ds
0.000000	631.056549	269.765328	641.383534	338.103476	10.326985	68.338149	69.114030
0.033333	623.678599	274.213497	632.411380	341.451732	8.732781	67.238235	67.802962
0.066667	616.348618	277.652051	625.559098	344.970249	9.210481	67.318198	67.945366
0.100000	608.633577	282.277110	617.871795	348.418508	9.238218	66.141398	66.783450
0.133333	595.811197	285.887025	609.767092	353.403421	13.955894	67.516397	68.943679
0.166667	582.145113	292.338363	597.957588	358.850546	15.812474	66.512183	68.365962
0.200000	567.399070	297.336953	584.813397	365.180421	17.414328	67.843469	70.042809
0.233333	551.257022	302.483234	570.046569	371.220194	18.789547	68.736960	71.258801
0.266667	535.715433	305.320371	555.616181	376.241445	19.900749	70.921074	73.660291
0.300000	519.428162	305.588450	541.664425	379.926982	22.236263	74.338532	77.592968
0.333333	507.768517	304.976106	527.773736	380.992303	20.005219	76.016197	78.604523
0.366667	498.436615	300.931258	516.375051	380.127997	17.938436	79.196739	81.202900
0.400000	493.123318	294.181706	506.678049	376.289444	13.554731	82.107738	83.219057
0.433333	491.858021	295.365892	502.871604	371.938885	11.013583	76.572993	77.360987
0.466667	496.595011	294.194975	503.884515	368.229071	7.289504	74.034096	74.392098
0.500000	508.956263	294.503929	511.192102	367.026581	2.235840	72.522653	72.557110
0.533333	525.401334	300.798209	523.044219	367.411157	-2.357114	66.612948	66.654638
0.566667	539.569244	299.209997	537.246130	366.278443	-2.323114	67.068446	67.108668
0.600000	550.017178	292.799517	551.309530	362.570582	1.292353	69.771065	69.783033
0.633333	554.863297	283.440782	560.676776	357.163000	5.813480	73.722218	73.951078
0.666667	556.456297	283.328647	565.337759	355.186693	8.881461	71.858046	72.404828
0.700000	554.031552	280.849559	563.747559	356.870496	9.716007	76.020936	76.639308
0.733333	550.988445	283.173292	559.849217	360.739606	8.860772	77.566314	78.070778
0.766667	549.695926	290.256907	555.129419	364.335549	5.433493	74.078641	74.277641
0.800000	544.694972	306.156898	550.624985	370.443853	5.930013	64.286956	64.559877
0.833333	534.313663	327.224976	543.737505	384.180427	9.423842	56.955451	57.729821
0.866667	517.157596	350.993056	528.990747	405.211911	11.833151	54.218855	55.495114
0.900000	489.192377	374.292836	505.300432	428.159285	16.108055	53.866449	56.223339
0.933333	460.016224	383.771411	473.550829	443.554722	13.534605	59.783311	61.296247
0.966667	436.991760	379.744382	443.612578	449.327338	6.620818	69.582956	69.897232
1.000000	417.555958	363.487640	421.931235	446.224893	4.375277	82.737253	82.852858
1.033333	412.178093	339.451954	412.796561	438.385283	0.618468	98.933329	98.935262
1.066667	414.080056	331.896155	413.738312	428.896121	-0.341744	96.999967	97.000569
1.100000	418.779696	327.729112	419.593635	420.784143	0.813939	93.055031	93.058591
1.133333	426.103462	321.529323	426.560836	417.492195	0.457374	95.962872	95.963962
1.166667	427.176156	332.308962	430.433060	417.537438	3.256904	85.228477	85.290684
1.200000	427.185203	335.165583	431.267529	418.936815	4.082327	83.771233	83.870643
1.233333	424.952492	341.025893	427.489811	417.894812	2.537319	76.868920	76.910785
1.266667	424.465435	353.194719	422.065099	416.864749	-2.400337	63.670029	63.715259
1.300000	420.059533	357.840979	417.340655	418.704392	-2.718878	60.863413	60.924111
1.333333	410.307794	367.463812	416.985757	424.445010	6.677963	56.981198	57.371179
1.366667	417.771323	380.112287	422.790609	431.323788	5.019286	51.211501	51.456885
1.400000	431.738084	381.433996	433.061595	434.833926	1.323511	53.399930	53.416329
1.433333	451.285443	371.731947	446.830695	434.865155	-4.454748	63.133207	63.290178
1.466667	460.783081	363.599327	460.821582	431.293118	0.038502	67.693792	67.693803
1.500000	475.626535	343.965205	476.578363	427.434624	0.951828	83.469419	83.474846
1.533333	493.852304	341.399281	491.735482	423.556654	-2.116822	82.157373	82.184639
1.566667	503.145658	338.421828	504.931396	420.933491	1.785738	82.511663	82.530984
1.600000	511.618774	329.461741	514.182983	419.369971	2.564208	89.908230	89.944789
1.633333	515.248249	343.233003	520.017182	417.964459	4.768933	74.731456	74.883465
1.666667	520.388675	351.150205	524.150998	417.815180	3.762322	66.664975	66.771057
1.700000	519.409307	362.366892	523.129598	420.136884	3.720291	57.769992	57.889658
1.733333	503.242634	381.676471	515.032268	429.229326	11.789633	47.552855	48.992545
1.766667	488.098935	385.774715	499.019315	443.002197	10.920380	57.227482	58.260101
1.800000	475.885918	397.229176	482.588716	457.451073	6.702798	60.221897	60.593765
1.833333	466.366420	407.771637	470.464655	465.782695	4.098235	58.011058	58.155639
1.866667	458.570416	393.443903	461.431849	466.025512	2.861433	72.581608	72.637990
1.900000	453.981471	379.366359	451.527984	460.728321	-2.453487	81.361961	81.398946
1.933333	437.306613	362.907555	441.241634	452.326348	3.935021	89.418793	89.505335
1.966667	429.990931	362.442084	439.008721	443.973161	9.017789	81.531078	82.028271
2.000000	441.622593	362.888358	446.527167	435.828450	4.904575	72.940092	73.104801
2.033333	451.573857	351.702926	459.232133	431.809065	7.658277	80.106138	80.471377
2.066667	454.934598	360.018401	466.420628	431.705671	11.486029	71.687270	72.601608
2.100000	452.829357	368.538026	466.256349	433.963038	13.426992	65.425012	66.788594
2.133333	454.468975	370.068446	463.411334	435.290478	8.942359	65.222032	65.832205
2.166667	450.564801	384.778797	461.317760	435.361513	10.752959	50.582717	51.713029
2.200000	445.739492	391.396773	459.509467	437.638733	13.769975	46.241960	48.248638
2.233333	447.831819	395.739866	455.447832	442.579981	7.616012	46.840116	47.455243
2.266667	456.734480	412.029849	453.858461	450.287545	-2.876019	38.257696	38.365646
2.300000	462.526015	423.216862	457.349739	458.078556	-5.176277	34.861694	35.243886
2.333333	474.810532	424.877372	466.576629	468.100165	-8.233903	43.222793	44.000080
2.366667	483.781532	428.691406	476.589176	480.387061	-7.192356	51.695655	52.193589
2.400000	489.681134	425.498785	485.283483	492.125932	-4.397651	66.627147	66.772120
2.433333	496.345320	424.320049	492.947809	498.923185	-3.397512	74.603135	74.680459
2.466667	498.955846	422.344127	497.912920	499.273265	-1.042926	76.929139	76.936208
2.500000	504.038186	419.447551	499.352093	497.541556	-4.686093	78.094006	78.234476
2.533333	504.682667	416.679654	496.697103	494.130960	-7.985564	77.451306	77.861891
2.566667	502.128126	416.361368	497.135312	488.628086	-4.992814	72.266718	72.438986
2.600000	511.422566	407.974073	502.368778	478.699089	-9.053788	70.725016	71.302167
2.633333	516.154876	416.884113	509.203390	468.945879	-6.951487	52.061767	52.523811
2.666667	514.396042	423.653595	511.910194	463.812089	-2.485848	40.158494	40.235359
2.700000	515.468637	408.220719	511.365577	461.756215	-4.103061	53.535496	53.692498
2.733333	520.478712	408.475802	514.271983	457.578540	-6.206729	49.102738	49.493457
2.766667	530.890487	388.918995	520.372330	448.423267	-10.518157	59.504272	60.426732
2.800000	532.535508	375.179722	523.955919	441.199445	-8.579589	66.019723	66.574869
2.833333	529.245620	364.719164	517.709414	439.400103	-11.536206	74.680938	75.566703
2.866667	514.668862	350.420008	506.783616	441.601480	-7.885245	91.181472	91.521790
2.900000	505.414156	354.051780	499.768382	441.478445	-5.645775	87.426665	87.608770
2.933333	507.236679	346.729848	500.268165	439.052435	-6.968514	92.322587	92.585205
2.966667	501.729420	354.799368	502.808366	438.876143	1.078946	84.076775	84.083698
3.000000	494.079001	361.591011	499.872918	440.509082	5.793917	78.918071	79.130471
3.033333	488.718521	353.071532	491.279963	439.332927	2.561442	86.261394	86.299416
3.066667	480.024340	356.266756	478.274916	430.424070	-1.749423	74.157314	74.177946
3.100000	465.018804	356.971912	465.112084	420.156364	0.093279	63.184452	63.184520
3.133333	460.559597	351.054314	453.887413	414.008842	-6.672184	62.954528	63.307113
3.166667	467.951421	360.899044	450.606748	412.809038	-17.344672	51.909995	54.731026
3.200000	480.835671	366.286610	458.243672	411.871094	-22.592000	45.584484	50.875766
3.233333	490.567078	360.154408	472.205643	410.875299	-18.361435	50.720890	53.942108
3.266667	494.373314	360.260961	482.207530	415.168991	-12.165784	54.908030	56.239648
3.300000	472.383142	350.566927	479.632009	424.208539	7.248867	73.641613	73.997521
3.333333	447.676064	349.283368	468.499496	432.437050	20.823432	83.153682	85.721352
3.366667	443.391822	346.602817	456.817809	432.132340	13.425987	85.529524	86.576882
3.400000	438.678169	343.329523	452.354975	427.627111	13.676806	84.297589	85.399874
3.433333	436.884983	363.626384	452.912624	426.229807	16.027640	62.603423	64.622548
3.466667	438.042834	372.883221	453.143302	430.698392	15.100468	57.815171	59.754649
3.500000	442.459622	381.881921	449.589037	436.718341	7.129415	54.836420	55.297934
3.533333	432.462612	391.724132	442.776315	440.211036	10.313704	48.486904	49.571689
3.566667	427.354162	393.072430	437.405659	444.027186	10.051497	50.954756	51.936690
3.600000	429.109425	384.487457	433.565582	447.557376	4.456157	63.069919	63.227147
3.633333	419.539605	386.894782	430.935883	448.481203	11.396278	61.586421	62.631960
3.666667	405.120953	381.642450	423.620838	442.414540	18.499885	60.772090	63.525528
3.700000	398.387610	364.778331	409.820252	433.861754	11.432642	69.083424	70.023030
3.733333	389.032120	354.447241	392.410637	429.166496	3.378518	74.719255	74.795598
3.766667	377.628305	339.960834	378.673295	428.639329	1.044990	88.678495	88.684652
3.800000	372.349488	340.067140	374.190472	428.190169	1.840984	88.123028	88.142256
3.833333	372.660753	337.388439	374.625062	425.808315	1.964310	88.419876	88.441693
3.866667	366.789199	342.634574	373.636151	428.062130	6.846953	85.427556	85.701506
3.900000	360.205842	366.559463	366.008606	435.339014	5.802764	68.779551	69.023900
3.933333	356.961923	356.534208	356.923415	441.317358	-0.038509	84.783150	84.783159
3.966667	361.391991	363.793630	351.204690	438.019856	-10.187301	74.226226	74.922051
4.000000	360.451352	376.903950	349.447683	429.991971	-11.003669	53.088021	54.216406
4.033333	359.784185	370.743009	349.143448	428.874184	-10.640737	58.131175	59.097028
4.066667	347.434517	385.162493	350.573266	436.992349	3.138748	51.829856	51.924808
4.100000	357.463942	390.770600	359.865477	445.699872	2.401536	54.929272	54.981745
4.133333	374.131956	381.178535	376.027370	444.229755	1.895414	63.051221	63.079704
4.166667	387.852619	368.708300	393.406068	437.002007	5.553448	68.293708	68.519131
4.200000	396.738407	353.574404	402.743128	432.271910	6.004721	78.697506	78.926257
4.233333	400.026694	345.105304	405.498676	433.442218	5.471982	88.336914	88.506231
4.266667	406.873435	335.802273	409.424333	434.691373	2.550898	98.889100	98.921995
4.300000	417.521087	340.350646	419.205856	431.921099	1.684769	91.570453	91.585951
4.333333	427.569218	350.400294	432.336790	428.707595	4.767572	78.307301	78.452298
4.366667	436.540520	352.385229	441.332448	427.660792	4.791928	75.275562	75.427932
4.400000	441.921653	360.709961	446.165478	428.740817	4.243825	68.030856	68.163094
4.433333	440.302313	363.891204	448.077642	427.463639	7.775329	63.572436	64.046158
4.466667	445.865817	355.892474	450.068337	426.114002	4.202520	70.221528	70.347169
4.500000	446.867937	370.231958	450.393160	427.513140	3.525223	57.281181	57.389554
4.533333	443.970703	371.678303	448.383870	431.228258	4.413167	59.549955	59.713258
4.566667	449.859831	354.184711	446.481274	431.935908	-3.378557	77.751197	77.824567
4.600000	451.739182	347.693363	446.989949	425.369008	-4.749233	77.675645	77.820698
4.633333	455.745986	333.045508	452.438358	415.689821	-3.307628	82.644313	82.710476
4.666667	464.477945	326.633294	459.817637	407.713824	-4.660308	81.080530	81.214351
4.700000	473.118839	325.449961	468.021649	406.243610	-5.097189	80.793649	80.954277
4.733333	476.186595	318.110066	473.729500	408.564323	-2.457094	90.454258	90.487624
4.766667	476.053147	335.099677	476.259056	411.896036	0.205909	76.796359	76.796635
4.800000	476.318690	338.320397	475.346813	413.372655	-0.971877	75.052258	75.058550
4.833333	473.026364	335.202621	471.464505	411.609685	-1.561859	76.407064	76.423025
4.866667	467.326256	348.357404	467.163165	407.475705	-0.163091	59.118301	59.118526
4.900000	464.679015	342.619129	463.897521	401.754715	-0.781494	59.135587	59.140750
4.933333	466.647787	347.157800	465.838947	398.696654	-0.808840	51.538854	51.545200
4.966667	466.278628	361.903336	473.339397	398.853135	7.060768	36.949799	37.618375
5.000000	482.704614	356.545138	486.704673	402.889693	4.000059	46.344556	46.516860
5.033333	496.562698	355.466016	502.020507	407.788922	5.457809	52.322905	52.606788
5.066667	503.226052	348.637413	515.326793	411.591690	12.100741	62.954277	64.106700
5.100000	505.846520	339.305021	523.984123	413.865733	18.137603	74.560711	76.735079
5.133333	511.725042	338.369010	526.965357	414.590137	15.240315	76.221126	77.729835
5.166667	517.735396	332.405379	527.736643	415.345715	10.001248	82.940336	83.541153
5.200000	519.124033	335.442749	527.753047	414.108450	8.629014	78.665701	79.137554
5.233333	511.980235	342.437760	530.123491	412.022972	18.143256	69.585213	71.911609
5.266667	513.365207	344.268800	531.692554	409.188372	18.327347	64.919573	67.456968
5.300000	510.001040	355.193501	529.055786	408.614914	19.054746	53.421412	56.717992
5.333333	493.759165	361.131959	519.437094	410.822287	25.677929	49.690328	55.932859
5.366667	481.184937	352.256654	504.571875	413.327254	23.386938	61.070600	65.395466
5.400000	472.868074	351.660485	490.665138	413.670285	17.797064	62.009800	64.513183
5.433333	463.599703	353.547546	480.850820	410.336604	17.251117	56.789058	59.351480
5.466667	465.515177	346.226065	477.008983	407.353209	11.493806	61.127144	62.198355
5.500000	467.325975	338.426530	475.128767	405.829696	7.802792	67.403165	67.853299
5.533333	463.510301	322.406482	474.296160	406.403723	10.785859	83.997241	84.686901
5.566667	457.487615	319.065171	473.477558	406.569773	15.989943	87.504602	88.953548
5.600000	456.733095	321.898253	473.405939	406.707828	16.672844	84.809575	86.432909
5.633333	459.033235	329.826365	474.120650	409.661543	15.087415	79.835177	81.248296
5.666667	454.583122	349.728730	473.944266	416.099157	19.361144	66.370427	69.136731
5.700000	449.854692	345.724227	472.580504	423.911876	22.725812	78.187649	81.423406
5.733333	445.493716	352.213393	467.335949	425.618276	21.842234	73.404883	76.585638
5.766667	444.607082	362.651390	460.688219	420.033929	16.081138	57.382539	59.593278
5.800000	447.548164	360.506569	455.553091	410.564304	8.004926	50.057734	50.693743
5.833333	453.439219	353.242755	457.714639	406.041916	4.275420	52.799162	52.971980
5.866667	461.423818	356.251463	467.140616	409.953063	5.716798	53.701600	54.005033
5.900000	465.224091	363.224521	477.074397	417.214445	11.850305	53.989924	55.275145
5.933333	477.263216	350.972127	480.129179	420.348365	2.865963	69.376238	69.435409
5.966667	479.704136	339.795195	474.401937	415.627481	-5.302199	75.832286	76.017425
6.000000	477.295050	336.791901	468.741849	409.725983	-8.553200	72.934082	73.433899
6.033333	482.789214	341.690777	469.390973	407.854835	-13.398241	66.164058	67.507003
6.066667	486.081929	337.969374	477.745042	411.386880	-8.336887	73.417506	73.889335
6.100000	489.651607	338.691787	486.925648	414.430225	-2.725959	75.738438	75.787478
6.133333	492.761131	343.201531	492.502475	413.743055	-0.258657	70.541524	70.541999
6.166667	495.035721	345.347317	494.146398	412.195141	-0.889323	66.847824	66.853739
6.200000	487.297619	361.500222	491.903493	414.229891	4.605875	52.729669	52.930446
6.233333	470.307570	361.892630	485.530089	422.218804	15.222519	60.326174	62.217139
6.266667	458.139831	357.241486	472.023353	430.242716	13.883521	73.001230	74.309701
6.300000	438.993551	367.302471	454.796884	434.130196	15.803333	66.827725	68.670883
6.333333	423.271666	361.078908	437.101032	430.950977	13.829365	69.872069	71.227505
6.366667	415.625471	353.225158	423.139856	424.469060	7.514385	71.243902	71.639093
6.400000	408.387163	341.827687	413.467888	419.323373	5.080725	77.495686	77.662057
6.433333	402.910727	325.448878	407.671005	417.987709	4.760278	92.538831	92.661187
6.466667	400.598206	325.888266	405.832205	420.710972	5.233999	94.822706	94.967049
6.500000	396.564547	335.834240	405.480279	424.491167	8.915732	88.656926	89.104101
6.533333	387.305206	340.272393	405.142651	429.403464	17.837445	89.131070	90.898417
6.566667	383.481622	352.495651	401.299800	433.392825	17.818178	80.897174	82.836225
6.600000	377.609247	350.800458	394.706605	436.374404	17.097357	85.573946	87.265227
6.633333	367.945171	354.680763	385.127725	435.958492	17.182554	81.277728	83.074119
6.666667	353.240225	358.128987	373.137965	431.617860	19.897740	73.488873	76.134975
6.700000	344.976270	359.322152	359.902518	425.021470	14.926248	65.699318	67.373535
6.733333	341.148413	346.626945	348.536999	418.425851	7.388585	71.798906	72.178072
6.766667	348.937006	360.789364	344.868011	415.920407	-4.068994	55.131043	55.280997
6.800000	350.079282	372.516338	349.087247	417.531055	-0.992035	45.014717	45.025647
6.833333	339.774564	370.881217	359.218086	424.183613	19.443522	53.302396	56.737959
6.866667	350.612372	370.368921	368.497820	431.554274	17.885447	61.185353	63.745875
6.900000	352.047264	350.278082	374.769011	436.030221	22.721747	85.752139	88.711370
6.933333	355.163918	340.579022	378.607972	435.419863	23.444053	94.840840	97.695489
6.966667	357.536454	339.071660	381.942610	431.785741	24.406155	92.714081	95.872630
7.000000	364.240955	338.741181	385.462118	430.262076	21.221162	91.520895	93.948986
7.033333	362.893503	349.441724	386.182758	431.638580	23.289255	82.196856	85.432503
7.066667	360.986856	363.748163	383.593736	435.307557	22.606881	71.559394	75.045439
7.100000	357.733976	370.395117	375.803920	437.156532	18.069944	66.761415	69.163642
7.133333	344.151850	381.585768	364.965832	438.010558	20.813982	56.424790	60.141323
7.166667	332.054045	369.652437	352.563241	438.390105	20.509196	68.737668	71.732100
7.200000	326.784875	367.352541	341.561825	438.606327	14.776950	71.253785	72.769913
7.233333	319.181135	368.854920	334.252771	437.970529	15.071636	69.115609	70.739817
7.266667	321.237385	367.068944	330.419402	436.062126	9.182016	68.993182	69.601498
7.300000	327.330427	364.737177	330.153123	435.541477	2.822695	70.804300	70.860543
7.333333	325.215632	342.460026	331.481980	435.180148	6.266347	92.720122	92.931631
7.366667	318.660008	341.773489	336.005351	435.031316	17.345343	93.257827	94.857173
7.400000	326.325674	348.224030	342.643165	433.864435	16.317491	85.640405	87.181073
7.433333	331.911181	351.355948	350.099874	435.304582	18.188693	83.948634	85.896459
7.466667	332.630418	369.472639	355.020415	441.114283	22.389997	71.641643	75.058890
7.500000	334.726820	371.027045	355.260676	447.857614	20.533855	76.830569	79.527200
7.533333	337.954930	373.065325	351.691381	450.459113	13.736452	77.393788	78.603362
7.566667	335.840432	382.699994	346.338307	446.599178	10.497875	63.899184	64.755780
7.600000	336.117796	378.469548	343.991221	443.234277	7.873425	64.764729	65.241558
7.633333	351.604604	389.783306	347.145119	444.500619	-4.459485	54.717313	54.898737
7.666667	367.195128	401.217462	357.738041	450.039950	-9.457087	48.822489	49.729990
7.700000	375.255176	401.294009	371.942300	452.593083	-3.312876	51.299074	51.405935
7.733333	383.104193	389.517999	383.739927	448.757715	0.635734	59.239716	59.243127
7.766667	383.078064	373.282844	388.567892	441.842494	5.489828	68.559650	68.779094
7.800000	379.722235	356.377401	387.089322	436.635689	7.367087	80.258288	80.595700
7.833333	379.030115	353.264546	385.382851	436.238247	6.352736	82.973702	83.216539
7.866667	382.711695	357.557064	385.613790	436.816461	2.902095	79.259397	79.312509
7.900000	364.789829	351.639161	387.137310	436.745808	22.347481	85.106647	87.991769
7.933333	350.635391	351.462734	384.748992	433.693450	34.113601	82.230717	89.025999
7.966667	346.186102	349.545553	377.473873	428.922242	31.287771	79.376689	85.320475
8.000000	337.265311	354.300934	366.847429	423.131624	29.582118	68.830690	74.918393
