etime(s)	ex	ey	tx	ty	dx	dy	ds
0.000000	652.860077	484.349084	645.590219	464.066241	-7.269858	-20.282843	21.546335
0.033333	652.315972	484.357167	644.662479	464.418594	-7.653494	-19.938573	21.357029
0.066667	648.817251	487.317134	640.688423	464.424109	-8.128828	-22.893024	24.293382
0.100000	643.730573	489.452697	637.409885	464.484544	-6.320688	-24.968153	25.755772
0.133333	639.824709	491.966078	633.668890	465.002600	-6.155819	-26.963478	27.657245
0.166667	632.099524	491.052812	627.387862	465.929517	-4.711662	-25.123296	25.561294
0.200000	626.073679	491.726569	621.778803	466.646568	-4.294875	-25.080000	25.445085
0.233333	624.349020	492.570581	616.310510	467.336336	-8.038510	-25.234245	26.483670
0.266667	617.487581	488.771964	608.388773	468.005627	-9.098807	-20.766337	22.672209
0.300000	600.059830	476.134682	599.583248	467.443840	-0.476582	-8.690843	8.703900
0.333333	598.179290	481.258702	591.568343	466.435383	-6.610947	-14.823319	16.230693
0.366667	589.587753	481.842489	582.095934	465.369762	-7.491819	-16.472727	18.096355
0.400000	582.985945	483.130931	572.102853	463.836788	-10.883092	-19.294143	22.151877
0.433333	569.724924	480.695970	563.847725	462.294063	-5.877198	-18.401907	19.317651
0.466667	559.481283	478.101440	555.469854	461.792772	-4.011429	-16.308668	16.794768
0.500000	549.880176	473.109298	544.039006	460.704440	-5.841171	-12.404858	13.711301
0.533333	540.322242	470.967913	531.205967	458.779056	-9.116274	-12.188856	15.220863
0.566667	529.755084	468.195111	522.567148	459.969718	-7.187937	-8.225393	10.923530
0.600000	524.228292	468.481539	518.140958	462.094042	-6.087335	-6.387497	8.823591
0.633333	518.737089	471.856060	514.292320	464.189157	-4.444769	-7.666903	8.862131
0.666667	516.162194	477.385155	510.726909	471.227883	-5.435285	-6.157272	8.213058
0.700000	514.215430	486.662403	507.935682	478.686671	-6.279749	-7.975733	10.151234
0.733333	511.606676	493.886139	508.119690	484.015863	-3.486986	-9.870276	10.468115
0.766667	510.990207	506.414136	510.662404	493.628560	-0.327803	-12.785576	12.789778
0.800000	511.787822	519.447228	512.244935	504.093829	0.457113	-15.353399	15.360202
0.833333	519.871794	528.611926	518.135775	508.943364	-1.736019	-19.668563	19.745028
0.866667	532.730476	530.569241	531.075313	510.994557	-1.655163	-19.574684	19.644536
0.900000	550.647785	529.260744	544.062162	512.407851	-6.585623	-16.852893	18.093933
0.933333	565.790082	525.835948	556.415140	511.324310	-9.374942	-14.511638	17.276492
0.966667	577.228763	522.131695	571.078836	509.006655	-6.149926	-13.125040	14.494422
1.000000	584.832828	521.718533	583.238115	506.786642	-1.594713	-14.931891	15.016807
1.033333	592.754281	519.355860	594.432929	505.053271	1.678648	-14.302589	14.400761
1.066667	602.823968	517.813840	607.089961	503.690571	4.265993	-14.123270	14.753489
1.100000	616.122592	513.748194	617.925494	501.391706	1.802902	-12.356488	12.487324
1.133333	632.232472	510.071269	633.681913	498.813159	1.449442	-11.258110	11.351031
1.166667	648.251232	510.262499	657.235402	496.534618	8.984170	-13.727882	16.406403
1.200000	670.139066	514.037356	678.763311	494.318692	8.624246	-19.718665	21.522160
1.233333	692.175061	515.398016	695.208324	492.869626	3.033263	-22.528390	22.731675
1.266667	708.900137	512.407169	709.793036	491.235878	0.892899	-21.171290	21.190111
1.300000	718.452156	509.582841	722.863963	487.795790	4.411808	-21.787051	22.229252
1.333333	718.728334	504.132980	732.419102	483.090165	13.690768	-21.042815	25.104526
1.366667	716.568048	500.870816	736.159165	480.097366	19.591116	-20.773450	28.554300
1.400000	712.528007	501.188752	732.883851	479.824784	20.355844	-21.363968	29.508973
1.433333	705.306470	500.017641	725.349531	479.774973	20.043061	-20.242668	28.486662
1.466667	699.939125	499.378332	718.937161	480.439785	18.998036	-18.938548	26.825248
1.500000	691.748397	500.031757	712.059764	483.113058	20.311367	-16.918698	26.434712
1.533333	685.283664	506.169990	704.011422	486.089524	18.727758	-20.080465	27.458223
1.566667	676.120151	513.377775	698.885296	487.990794	22.765145	-25.386982	34.099130
1.600000	669.698125	521.110983	694.545313	491.443191	24.847187	-29.667792	38.698328
1.633333	664.773310	523.108132	685.657086	495.893723	20.883776	-27.214409	34.303880
1.666667	656.267863	520.733850	674.469071	497.030665	18.201208	-23.703185	29.885196
1.700000	648.709701	520.932173	666.356520	496.748252	17.646819	-24.183921	29.937806
1.733333	640.435264	522.909788	659.156298	497.214476	18.721033	-25.695312	31.791919
1.766667	633.842381	522.056028	649.905331	496.837094	16.062950	-25.218934	29.900051
1.800000	627.199097	520.550793	641.840328	496.572745	14.641231	-23.978048	28.094705
1.833333	620.481975	517.156113	635.698716	496.712080	15.216741	-20.444033	25.485441
1.866667	610.162073	512.802158	628.754716	495.776472	18.592643	-17.025687	25.210323
1.900000	599.813475	510.623722	618.867312	493.329614	19.053836	-17.294109	25.731981
1.933333	590.943719	509.237446	607.390977	490.276938	16.447257	-18.960508	25.100063
1.966667	588.151017	509.191896	599.955567	488.283833	11.804550	-20.908063	24.010300
2.000000	584.525277	508.080827	595.986489	486.824005	11.461212	-21.256822	24.149780
2.033333	580.869342	507.505367	590.131443	486.084231	9.262101	-21.421137	23.337772
2.066667	578.431966	507.381111	584.047940	488.025815	5.615974	-19.355295	20.153576
2.100000	573.200858	507.038255	579.617321	490.221364	6.416464	-16.816891	17.999412
2.133333	564.941783	507.316728	572.078552	486.600265	7.136770	-20.716462	21.911305
2.166667	559.041112	502.669018	564.526035	479.980911	5.484923	-22.688107	23.341692
2.200000	553.923202	496.828893	560.323616	477.397686	6.400414	-19.431207	20.458180
2.233333	552.002247	499.202831	554.209963	478.019447	2.207716	-21.183384	21.298116
2.266667	547.916483	500.262080	548.108011	478.904682	0.191528	-21.357397	21.358256
2.300000	543.085751	494.391478	544.495324	477.752131	1.409573	-16.639347	16.698945
2.333333	538.478651	483.765219	539.022122	473.018372	0.543470	-10.746847	10.760580
2.366667	531.637506	476.946479	532.768054	467.423928	1.130548	-9.522551	9.589427
2.400000	526.932845	470.718042	528.863320	463.605057	1.930475	-7.112985	7.370298
2.433333	527.915261	467.995775	525.504156	461.009194	-2.411106	-6.986581	7.390923
2.466667	528.149710	467.037610	521.426205	458.158382	-6.723505	-8.879229	11.137604
2.500000	524.922353	465.655622	519.393724	456.088005	-5.528629	-9.567616	11.050114
2.533333	523.277926	466.415211	519.573249	456.635538	-3.704677	-9.779674	10.457851
2.566667	525.328208	467.088874	518.535959	457.709726	-6.792249	-9.379149	11.580288
2.600000	527.632822	472.761815	518.110109	458.642511	-9.522713	-14.119304	17.030467
2.633333	530.646899	475.793045	520.308067	462.340923	-10.338832	-13.452123	16.966174
2.666667	528.785975	479.864544	523.100511	468.374192	-5.685463	-11.490352	12.820011
2.700000	521.315546	481.768343	523.985944	471.583906	2.670398	-10.184437	10.528712
2.733333	518.758901	479.628345	523.121546	471.336246	4.362645	-8.292100	9.369717
2.766667	518.792522	481.197752	521.955873	469.435146	3.163351	-11.762606	12.180546
2.800000	521.448678	479.374250	520.184710	466.387890	-1.263968	-12.986360	13.047726
2.833333	522.668204	477.753415	518.472432	466.924115	-4.195772	-10.829300	11.613709
2.866667	523.593013	479.332941	518.154227	472.248012	-5.438786	-7.084928	8.931775
2.900000	521.381281	489.298302	517.725118	477.549496	-3.656164	-11.748806	12.304551
2.933333	517.209405	495.920702	514.607765	480.898900	-2.601641	-15.021802	15.245428
2.966667	512.006914	497.171358	509.723310	481.663245	-2.283604	-15.508113	15.675344
3.000000	511.771133	496.095450	506.828749	480.317398	-4.942384	-15.778051	16.534027
3.033333	512.020702	492.085872	504.624173	478.489843	-7.396529	-13.596030	15.477747
3.066667	510.705547	487.632138	500.188125	476.093274	-10.517421	-11.538864	15.612864
3.100000	508.329766	485.061181	496.449320	473.615488	-11.880446	-11.445693	16.496935
3.133333	504.149289	483.183627	493.160583	471.998242	-10.988706	-11.185385	15.680067
3.166667	498.886496	484.303522	486.429586	471.315581	-12.456910	-12.987941	17.996145
3.200000	493.710496	483.128352	479.207558	470.930752	-14.502938	-12.197601	18.950374
3.233333	488.424715	485.435024	474.855358	470.374522	-13.569357	-15.060502	20.271808
3.266667	483.109839	484.179073	468.730771	468.858498	-14.379068	-15.320575	21.011369
3.300000	471.709880	479.072443	461.332422	467.631078	-10.377457	-11.441365	15.446568
3.333333	465.037797	475.123697	456.826906	467.367302	-8.210891	-7.756395	11.295149
3.366667	461.331423	467.447809	452.182077	464.947706	-9.149346	-2.500104	9.484780
3.400000	452.866650	460.631134	446.753915	460.140056	-6.112735	-0.491077	6.132429
3.433333	458.005619	455.493732	443.411876	456.032682	-14.593743	0.538950	14.603692
3.466667	441.481578	462.647459	441.044251	452.933488	-0.437328	-9.713971	9.723810
3.500000	467.025051	454.694191	438.387250	449.595676	-28.637801	-5.098515	29.088116
3.533333	416.866645	465.691853	435.899763	445.615744	19.033118	-20.076109	27.664232
3.566667	542.130856	415.491144	432.481147	439.643137	-109.649709	24.151993	112.278125
3.600000	510.388449	425.630278	427.519120	432.213715	-82.869330	6.583437	83.130424
3.633333	406.535474	452.479340	424.532345	428.866625	17.996871	-23.612715	29.689185
3.666667	445.064377	434.745523	423.233562	428.485151	-21.830815	-6.260372	22.710719
3.700000	417.806316	433.486888	419.050000	423.683992	1.243684	-9.802896	9.881473
3.733333	426.614563	415.459951	414.415926	417.183331	-12.198638	1.723380	12.319773
3.766667	411.382201	413.393322	411.942174	414.069368	0.559973	0.676046	0.877843
3.800000	415.081895	410.129179	409.921800	414.000985	-5.160095	3.871806	6.451160
3.833333	408.921899	414.906318	408.010029	416.387331	-0.911871	1.481013	1.739226
3.866667	407.839583	418.379882	407.187091	421.157437	-0.652492	2.777555	2.853166
3.900000	405.084373	427.730178	406.767572	427.285201	1.683199	-0.444977	1.741023
3.933333	401.368164	431.259693	403.926228	431.269266	2.558064	0.009573	2.558082
3.966667	397.991490	429.188517	398.137898	430.376219	0.146407	1.187702	1.196692
4.000000	393.347334	422.719978	392.858647	426.795360	-0.488688	4.075382	4.104578
4.033333	386.947630	414.214284	390.129954	422.676097	3.182325	8.461812	9.040435
4.066667	389.996985	414.125517	389.502783	419.445884	-0.494201	5.320367	5.343270
4.100000	395.672167	419.685691	391.932121	422.360395	-3.740046	2.674704	4.598042
4.133333	399.348744	429.745242	396.525841	430.789461	-2.822903	1.044219	3.009846
4.166667	403.290568	438.929393	399.332306	435.981496	-3.958263	-2.947898	4.935377
4.200000	409.729653	447.001922	401.233117	437.746696	-8.496536	-9.255226	12.563851
4.233333	414.084804	450.127323	403.995711	440.170838	-10.089093	-9.956485	14.174674
4.266667	416.442838	451.748665	404.699352	440.482894	-11.743486	-11.265771	16.273508
4.300000	415.474284	449.445376	403.319480	438.458556	-12.154804	-10.986820	16.384428
4.333333	416.516262	445.273310	401.402240	436.321845	-15.114022	-8.951465	17.565944
4.366667	416.115175	446.814462	399.331177	434.581332	-16.783998	-12.233130	20.769017
4.400000	414.533933	448.319771	397.423705	433.622527	-17.110228	-14.697244	22.555906
4.433333	412.451348	446.889575	395.813008	433.309268	-16.638339	-13.580308	21.476943
4.466667	402.052843	434.655972	394.755039	432.557216	-7.297803	-2.098756	7.593596
4.500000	398.162982	425.573145	394.587199	431.291200	-3.575783	5.718055	6.744063
4.533333	393.828538	426.259222	396.161557	431.571864	2.333019	5.312642	5.802339
4.566667	397.913554	430.594199	399.144199	432.527992	1.230646	1.933793	2.292170
4.600000	401.791055	427.799066	400.010835	428.948826	-1.780220	1.149759	2.119228
4.633333	400.049387	421.439611	397.286935	422.223103	-2.762452	0.783492	2.871411
4.666667	396.871547	421.366569	394.855201	420.393421	-2.016346	-0.973148	2.238899
4.700000	394.078353	421.269535	393.055994	420.138030	-1.022358	-1.131505	1.524966
4.733333	394.675829	415.137297	388.826235	413.095898	-5.849594	-2.041399	6.195568
4.766667	391.941451	405.336438	385.412822	405.733309	-6.528629	0.396870	6.540680
4.800000	389.837379	400.858571	383.538165	402.259119	-6.299213	1.400548	6.453032
4.833333	387.084669	395.721764	379.700263	397.329484	-7.384406	1.607719	7.557395
4.866667	380.321872	429.422144	376.883303	394.293857	-3.438569	-35.128287	35.296179
4.900000	351.138153	474.402513	374.315613	393.572527	23.177459	-80.829987	84.087344
4.933333	333.174449	401.909707	368.998461	390.224591	35.824012	-11.685116	37.681584
4.966667	366.041735	402.078584	364.733116	387.275518	-1.308619	-14.803066	14.860796
5.000000	355.934311	400.355325	362.721252	388.148040	6.786942	-12.207285	13.967118
5.033333	357.586831	398.757062	360.360644	392.075388	2.773813	-6.681675	7.234557
5.066667	350.357949	392.821713	358.230335	397.179326	7.872386	4.357613	8.997959
5.100000	351.986921	390.206608	357.179325	399.189272	5.192404	8.982664	10.375418
5.133333	350.338394	389.969165	356.031852	395.949174	5.693458	5.980010	8.256875
5.166667	353.674519	380.656103	354.917769	390.826295	1.243251	10.170192	10.245900
5.200000	361.321830	381.133116	355.841171	387.767575	-5.480659	6.634459	8.605444
5.233333	369.067071	379.758286	359.812765	388.187759	-9.254306	8.429473	12.517915
5.266667	370.245024	389.774183	364.141573	390.410922	-6.103451	0.636739	6.136575
5.300000	376.277628	386.057131	366.196561	392.146967	-10.081066	6.089837	11.777691
5.333333	380.091552	412.834501	368.313638	394.662027	-11.777914	-18.172474	21.655440
5.366667	435.274731	320.928903	370.915407	397.806017	-64.359324	76.877114	100.260726
5.400000	538.651108	243.496541	372.896072	399.832911	-165.755036	156.336370	227.850373
5.433333	497.264188	258.828075	376.914125	402.569686	-120.350063	143.741612	187.472101
5.466667	359.302837	387.591864	380.224871	404.262820	20.922034	16.670956	26.751678
5.500000	403.999237	377.835164	380.109592	403.067973	-23.889645	25.232809	34.747802
5.533333	413.391034	369.445967	379.051342	401.757050	-34.339692	32.311082	47.151039
5.566667	389.729849	372.330031	375.304188	400.702796	-14.425661	28.372765	31.829444
5.600000	361.487924	387.583301	368.642136	399.062684	7.154212	11.479383	13.526234
5.633333	357.304018	379.778695	363.729998	398.628582	6.425980	18.849887	19.915106
5.666667	353.514044	380.235878	359.812211	399.689493	6.298167	19.453614	20.447739
5.700000	354.439806	383.988553	354.539590	400.089900	0.099785	16.101348	16.101657
5.733333	351.314904	381.495185	349.944239	400.137316	-1.370665	18.642131	18.692452
5.766667	347.920420	379.754140	346.637228	401.784887	-1.283192	22.030747	22.068085
5.800000	345.055706	382.697850	343.846645	404.037596	-1.209061	21.339746	21.373970
5.833333	344.924928	384.761387	341.558690	403.597142	-3.366239	18.835755	19.134190
5.866667	339.749448	377.332361	339.450090	398.986355	-0.299358	21.653995	21.656064
5.900000	337.329316	367.773717	339.249905	393.038062	1.920589	25.264345	25.337242
5.933333	338.424410	363.049056	341.578147	388.848128	3.153738	25.799072	25.991117
5.966667	342.871036	364.679381	344.174250	387.136475	1.303214	22.457094	22.494876
6.000000	351.840148	368.267221	346.616668	388.129958	-5.223480	19.862737	20.538088
6.033333	358.787540	370.822084	347.250085	388.566491	-11.537455	17.744407	21.165463
6.066667	359.881152	369.190254	345.302278	386.300493	-14.578875	17.110240	22.478966
6.100000	357.396700	364.995778	343.305529	383.753759	-14.091172	18.757982	23.461095
6.133333	355.614104	362.863594	342.460947	383.238761	-13.153157	20.375167	24.251865
6.166667	351.199722	362.358295	341.851794	385.023752	-9.347927	22.665457	24.517477
6.200000	350.183777	366.452189	341.287397	388.823508	-8.896380	22.371319	24.075330
6.233333	349.440943	374.480058	341.386387	393.274222	-8.054556	18.794164	20.447408
6.266667	346.279660	374.114538	341.237550	394.327490	-5.042110	20.212951	20.832337
6.300000	344.082305	367.836748	340.030784	390.194583	-4.051520	22.357835	22.721963
6.333333	345.177036	357.235232	339.659396	384.003560	-5.517640	26.768328	27.331076
6.366667	354.050382	353.909811	342.585782	379.487884	-11.464599	25.578073	28.029892
6.400000	363.975871	359.745933	348.706934	380.061483	-15.268937	20.315549	25.413815
6.433333	368.372162	368.618726	355.130546	385.958620	-13.241617	17.339894	21.817707
6.466667	367.875524	374.616197	359.326761	391.864431	-8.548763	17.248234	19.250531
6.500000	366.249147	376.231929	360.617555	393.781362	-5.631592	17.549433	18.430883
6.533333	363.835105	377.224296	361.012575	395.054622	-2.822530	17.830326	18.052346
6.566667	365.794760	380.691704	363.991511	399.855061	-1.803248	19.163357	19.248012
6.600000	369.694791	383.077746	367.484586	404.182529	-2.210206	21.104783	21.220200
6.633333	372.557239	386.622285	368.412268	405.737425	-4.144972	19.115140	19.559380
6.666667	376.245179	390.896733	369.521037	407.817189	-6.724142	16.920456	18.207579
6.700000	380.299734	393.277386	372.797896	409.981444	-7.501838	16.704057	18.311284
6.733333	385.870554	394.823089	373.531953	409.763639	-12.338601	14.940550	19.376819
6.766667	386.293502	394.221330	370.079557	408.936476	-16.213946	14.715146	21.895835
6.800000	379.788487	392.460088	367.541676	410.220511	-12.246811	17.760424	21.573526
6.833333	376.616504	395.182917	363.818486	412.585763	-12.798018	17.402846	21.602044
6.866667	368.705039	398.455165	354.533882	414.230551	-14.171157	15.775386	21.205766
6.900000	362.418603	396.121167	345.592634	415.117053	-16.825968	18.995887	25.376306
6.933333	351.216584	394.837396	341.231248	415.600634	-9.985336	20.763238	23.039510
6.966667	350.263596	397.160569	338.883483	415.833648	-11.380113	18.673080	21.867576
7.000000	351.888490	399.339242	337.810065	414.845936	-14.078426	15.506694	20.944202
7.033333	355.650400	395.404699	338.930687	411.623051	-16.719713	16.218352	23.293427
7.066667	358.351648	389.363140	341.856443	406.759606	-16.495206	17.396466	23.973503
7.100000	362.395832	386.019118	345.036777	401.831466	-17.359055	15.812349	23.481209
7.133333	360.450710	381.574618	348.414929	398.844036	-12.035781	17.269418	21.049770
7.166667	367.894436	382.088760	353.047227	397.302163	-14.847209	15.213403	21.257640
7.200000	371.781093	381.721486	357.553874	395.166310	-14.227218	13.444824	19.574908
7.233333	372.984911	380.330077	359.953704	393.124479	-13.031207	12.794402	18.262231
7.266667	376.899900	381.450243	363.228063	393.529941	-13.671837	12.079698	18.243855
7.300000	377.389259	379.908559	367.751375	393.019077	-9.637884	13.110518	16.271893
7.333333	380.491236	379.552137	369.977927	391.498845	-10.513309	11.946709	15.913941
7.366667	381.109253	383.154563	372.602777	397.384977	-8.506476	14.230413	16.579047
7.400000	384.730276	392.104671	377.388983	405.290447	-7.341293	13.185776	15.091696
7.433333	389.985543	393.709215	380.933330	403.449252	-9.052214	9.740037	13.297026
7.466667	395.562932	386.179232	382.761082	396.748797	-12.801849	10.569565	16.601297
7.500000	402.191986	378.059358	383.156715	390.722930	-19.035271	12.663573	22.862800
7.533333	405.164214	373.842945	381.509617	384.355397	-23.654597	10.512452	25.885355
7.566667	408.999543	376.485823	379.446260	380.617894	-29.553283	4.132071	29.840753
7.600000	409.373643	380.592194	379.285958	381.939216	-30.087685	1.347022	30.117823
7.633333	410.802982	385.509206	380.990027	387.412075	-29.812956	1.902869	29.873621
7.666667	409.068584	389.110478	382.999202	393.989281	-26.069381	4.878804	26.521979
7.700000	405.578696	389.237664	384.460317	397.940298	-21.118379	8.702634	22.841229
7.733333	402.652284	389.869438	383.532551	399.434593	-19.119733	9.565155	21.378877
7.766667	397.731782	389.880512	381.128722	400.840954	-16.603059	10.960442	19.894544
7.800000	394.367187	389.914016	379.324995	400.879990	-15.042192	10.965974	18.615051
7.833333	391.500693	391.011265	376.569729	399.721778	-14.930964	8.710513	17.286027
7.866667	385.273798	389.095337	373.052298	399.496314	-12.221500	10.400978	16.048221
7.900000	379.644696	387.066819	370.780811	398.869349	-8.863885	11.802531	14.760359
7.933333	374.329887	383.805059	368.998692	397.594008	-5.331196	13.788949	14.783666
7.966667	370.799151	378.837083	367.482997	397.510161	-3.316154	18.673078	18.965250
